MLII
-0.035
-0.035
-0.035
-0.035
-0.035
-0.035
-0.035
-0.035
-0.035
-0.035
-0.02
-0.04
-0.065
-0.08
-0.1
-0.09
-0.08
-0.105
-0.095
-0.125
-0.135
-0.125
-0.115
-0.105
-0.12
-0.13
-0.125
-0.12
-0.105
-0.1
-0.115
-0.125
-0.13
-0.13
-0.115
-0.115
-0.11
-0.125
-0.13
-0.12
-0.105
-0.105
-0.09
-0.125
-0.135
-0.12
-0.1
-0.11
-0.115
-0.12
-0.115
-0.11
-0.09
-0.085
-0.095
-0.12
-0.125
-0.12
-0.11
-0.1
-0.115
-0.135
-0.135
-0.14
-0.11
-0.13
-0.135
-0.15
-0.14
-0.135
-0.13
-0.14
-0.135
-0.145
-0.145
-0.135
-0.12
-0.125
-0.13
-0.145
-0.145
-0.125
-0.125
-0.135
-0.13
-0.145
-0.155
-0.15
-0.135
-0.135
-0.14
-0.16
-0.165
-0.15
-0.145
-0.135
-0.15
-0.145
-0.15
-0.14
-0.125
-0.12
-0.12
-0.12
-0.115
-0.115
-0.09
-0.07
-0.075
-0.09
-0.09
-0.075
-0.065
-0.075
-0.07
-0.11
-0.095
-0.1
-0.085
-0.08
-0.095
-0.125
-0.14
-0.125
-0.13
-0.125
-0.15
-0.155
-0.165
-0.145
-0.15
-0.145
-0.175
-0.195
-0.205
-0.19
-0.185
-0.185
-0.2
-0.205
-0.22
-0.205
-0.185
-0.195
-0.225
-0.215
-0.23
-0.22
-0.22
-0.22
-0.23
-0.235
-0.245
-0.235
-0.215
-0.225
-0.23
-0.245
-0.25
-0.24
-0.235
-0.215
-0.23
-0.25
-0.24
-0.23
-0.22
-0.215
-0.225
-0.24
-0.245
-0.23
-0.22
-0.205
-0.195
-0.185
-0.175
-0.135
-0.09
-0.035
0.03
0.11
0.18
0.22
0.22
0.185
0.085
-0.035
-0.095
-0.095
-0.025
0.085
0.205
0.34
0.48
0.595
0.67
0.68
0.59
0.455
0.335
0.23
0.14
0.035
-0.09
-0.2
-0.3
-0.39
-0.445
-0.485
-0.51
-0.495
-0.455
-0.425
-0.38
-0.335
-0.33
-0.32
-0.33
-0.31
-0.315
-0.3
-0.31
-0.315
-0.32
-0.29
-0.285
-0.27
-0.275
-0.295
-0.295
-0.285
-0.285
-0.28
-0.275
-0.295
-0.29
-0.275
-0.255
-0.245
-0.23
-0.26
-0.26
-0.25
-0.235
-0.235
-0.235
-0.245
-0.245
-0.22
-0.195
-0.175
-0.18
-0.18
-0.17
-0.155
-0.14
-0.12
-0.125
-0.12
-0.115
-0.1
-0.07
-0.075
-0.045
-0.05
-0.045
-0.005
0.015
0.025
0.03
0.03
0.04
0.06
0.085
0.09
0.08
0.08
0.08
0.11
0.125
0.14
0.13
0.115
0.09
0.09
0.085
0.06
0.03
-0.015
-0.04
-0.06
-0.08
-0.095
-0.115
-0.15
-0.175
-0.175
-0.165
-0.17
-0.185
-0.205
-0.235
-0.22
-0.215
-0.205
-0.22
-0.245
-0.24
-0.23
-0.23
-0.225
-0.245
-0.275
-0.255
-0.245
-0.24
-0.235
-0.235
-0.245
-0.265
-0.25
-0.245
-0.235
-0.245
-0.26
-0.255
-0.24
-0.225
-0.245
-0.24
-0.25
-0.25
-0.26
-0.235
-0.235
-0.235
-0.24
-0.245
-0.255
-0.24
-0.24
-0.24
-0.245
-0.26
-0.235
-0.22
-0.225
-0.245
-0.26
-0.255
-0.23
-0.23
-0.21
-0.23
-0.25
-0.26
-0.255
-0.245
-0.23
-0.235
-0.24
-0.25
-0.245
-0.24
-0.255
-0.255
-0.255
-0.275
-0.26
-0.245
-0.24
-0.26
-0.27
-0.265
-0.265
-0.25
-0.245
-0.26
-0.285
-0.27
-0.255
-0.235
-0.225
-0.225
-0.24
-0.235
-0.22
-0.215
-0.215
-0.23
-0.245
-0.24
-0.22
-0.19
-0.175
-0.195
-0.18
-0.18
-0.17
-0.17
-0.175
-0.2
-0.21
-0.22
-0.215
-0.215
-0.21
-0.21
-0.23
-0.23
-0.23
-0.22
-0.225
-0.25
-0.27
-0.28
-0.275
-0.27
-0.265
-0.275
-0.29
-0.31
-0.315
-0.305
-0.285
-0.295
-0.29
-0.29
-0.295
-0.28
-0.285
-0.3
-0.3
-0.315
-0.31
-0.315
-0.325
-0.32
-0.325
-0.335
-0.325
-0.3
-0.3
-0.305
-0.31
-0.33
-0.305
-0.305
-0.29
-0.305
-0.315
-0.31
-0.31
-0.3
-0.285
-0.295
-0.295
-0.3
-0.315
-0.28
-0.255
-0.26
-0.255
-0.25
-0.2
-0.145
-0.1
-0.05
0.015
0.08
0.145
0.21
0.23
0.2
0.135
0.08
-0.02
-0.075
-0.095
-0.075
-0.04
0.045
0.155
0.285
0.38
0.46
0.5
0.5
0.485
0.425
0.335
0.245
0.16
0.085
0.025
-0.04
-0.125
-0.205
-0.29
-0.36
-0.42
-0.435
-0.455
-0.47
-0.47
-0.44
-0.405
-0.37
-0.355
-0.35
-0.355
-0.36
-0.35
-0.32
-0.335
-0.335
-0.36
-0.345
-0.33
-0.325
-0.33
-0.335
-0.335
-0.34
-0.335
-0.33
-0.32
-0.31
-0.34
-0.335
-0.32
-0.305
-0.295
-0.31
-0.325
-0.31
-0.31
-0.29
-0.28
-0.28
-0.285
-0.29
-0.275
-0.265
-0.25
-0.25
-0.25
-0.255
-0.22
-0.2
-0.18
-0.195
-0.19
-0.21
-0.18
-0.155
-0.125
-0.14
-0.125
-0.12
-0.105
-0.085
-0.075
-0.075
-0.075
-0.07
-0.045
-0.04
-0.03
-0.01
-0.015
0.005
0.03
0.06
0.06
0.065
0.06
0.065
0.095
0.125
0.115
0.13
0.13
0.11
0.12
0.115
0.105
0.085
0.045
0.03
0.01
0.01
-0.005
-0.025
-0.075
-0.09
-0.105
-0.115
-0.115
-0.15
-0.15
-0.175
-0.18
-0.175
-0.18
-0.19
-0.21
-0.215
-0.195
-0.185
-0.18
-0.195
-0.215
-0.23
-0.22
-0.21
-0.21
-0.225
-0.215
-0.23
-0.22
-0.205
-0.19
-0.2
-0.195
-0.2
-0.205
-0.185
-0.195
-0.195
-0.205
-0.21
-0.205
-0.185
-0.17
-0.19
-0.205
-0.195
-0.18
-0.175
-0.17
-0.19
-0.195
-0.215
-0.19
-0.185
-0.19
-0.195
-0.195
-0.195
-0.2
-0.18
-0.17
-0.185
-0.21
-0.2
-0.2
-0.17
-0.165
-0.2
-0.21
-0.21
-0.195
-0.17
-0.18
-0.19
-0.2
-0.215
-0.205
-0.195
-0.185
-0.2
-0.21
-0.21
-0.205
-0.2
-0.195
-0.205
-0.22
-0.215
-0.205
-0.21
-0.185
-0.195
-0.21
-0.215
-0.21
-0.195
-0.19
-0.215
-0.21
-0.215
-0.19
-0.18
-0.165
-0.17
-0.19
-0.18
-0.17
-0.16
-0.145
-0.15
-0.15
-0.145
-0.155
-0.12
-0.115
-0.105
-0.105
-0.115
-0.105
-0.11
-0.095
-0.11
-0.125
-0.13
-0.145
-0.135
-0.13
-0.145
-0.16
-0.165
-0.165
-0.15
-0.155
-0.165
-0.175
-0.195
-0.195
-0.18
-0.185
-0.2
-0.195
-0.21
-0.205
-0.205
-0.22
-0.225
-0.215
-0.24
-0.225
-0.21
-0.22
-0.24
-0.25
-0.245
-0.225
-0.225
-0.22
-0.23
-0.25
-0.25
-0.245
-0.235
-0.215
-0.22
-0.24
-0.245
-0.23
-0.23
-0.215
-0.225
-0.225
-0.24
-0.225
-0.205
-0.22
-0.22
-0.22
-0.23
-0.215
-0.2
-0.19
-0.205
-0.21
-0.205
-0.185
-0.15
-0.14
-0.125
-0.125
-0.07
-0.005
0.05
0.13
0.175
0.22
0.23
0.22
0.185
0.12
0.015
-0.05
-0.05
0.015
0.12
0.24
0.38
0.49
0.59
0.685
0.745
0.75
0.68
0.565
0.455
0.375
0.29
0.21
0.12
0.005
-0.11
-0.2
-0.275
-0.35
-0.42
-0.455
-0.48
-0.475
-0.435
-0.4
-0.37
-0.34
-0.325
-0.305
-0.27
-0.26
-0.255
-0.26
-0.28
-0.255
-0.25
-0.245
-0.24
-0.25
-0.25
-0.24
-0.225
-0.215
-0.235
-0.24
-0.245
-0.235
-0.215
-0.21
-0.22
-0.235
-0.23
-0.225
-0.215
-0.195
-0.185
-0.2
-0.19
-0.19
-0.17
-0.165
-0.165
-0.175
-0.18
-0.165
-0.14
-0.125
-0.13
-0.135
-0.12
-0.11
-0.095
-0.08
-0.075
-0.085
-0.07
-0.055
-0.04
-0.03
-0.015
-0.025
-0.025
0.0
0.02
0.045
0.045
0.035
0.035
0.07
0.085
0.1
0.115
0.11
0.11
0.12
0.15
0.16
0.17
0.17
0.175
0.19
0.19
0.21
0.225
0.2
0.195
0.195
0.205
0.19
0.17
0.125
0.11
0.095
0.08
0.08
0.045
0.015
-0.015
-0.035
-0.035
-0.04
-0.08
-0.095
-0.095
-0.09
-0.1
-0.095
-0.1
-0.13
-0.13
-0.125
-0.125
-0.125
-0.135
-0.145
-0.155
-0.15
-0.14
-0.13
-0.145
-0.15
-0.145
-0.155
-0.145
-0.12
-0.145
-0.155
-0.165
-0.15
-0.13
-0.13
-0.14
-0.15
-0.145
-0.145
-0.145
-0.125
-0.14
-0.15
-0.165
-0.155
-0.145
-0.155
-0.15
-0.165
-0.17
-0.16
-0.15
-0.15
-0.155
-0.17
-0.195
-0.18
-0.155
-0.15
-0.16
-0.175
-0.175
-0.165
-0.14
-0.14
-0.145
-0.17
-0.18
-0.17
-0.15
-0.15
-0.155
-0.165
-0.175
-0.175
-0.155
-0.145
-0.155
-0.17
-0.18
-0.16
-0.15
-0.155
-0.165
-0.17
-0.185
-0.18
-0.17
-0.17
-0.175
-0.18
-0.185
-0.16
-0.17
-0.18
-0.18
-0.205
-0.175
-0.16
-0.16
-0.16
-0.165
-0.17
-0.15
-0.12
-0.115
-0.12
-0.14
-0.145
-0.135
-0.11
-0.1
-0.105
-0.12
-0.115
-0.105
-0.09
-0.085
-0.1
-0.12
-0.13
-0.125
-0.115
-0.12
-0.13
-0.15
-0.155
-0.16
-0.15
-0.155
-0.155
-0.175
-0.2
-0.205
-0.18
-0.175
-0.2
-0.21
-0.225
-0.2
-0.19
-0.19
-0.22
-0.245
-0.265
-0.255
-0.23
-0.225
-0.22
-0.245
-0.255
-0.245
-0.24
-0.23
-0.245
-0.265
-0.275
-0.265
-0.25
-0.25
-0.25
-0.27
-0.275
-0.255
-0.255
-0.26
-0.255
-0.275
-0.285
-0.26
-0.275
-0.275
-0.265
-0.28
-0.285
-0.275
-0.26
-0.26
-0.255
-0.265
-0.27
-0.26
-0.25
-0.24
-0.255
-0.265
-0.26
-0.235
-0.21
-0.18
-0.165
-0.15
-0.115
-0.06
0.015
0.09
0.135
0.145
0.15
0.145
0.115
0.05
-0.05
-0.125
-0.165
-0.12
-0.03
0.08
0.21
0.3
0.41
0.525
0.63
0.69
0.67
0.6
0.485
0.39
0.31
0.215
0.12
0.005
-0.1
-0.2
-0.29
-0.375
-0.46
-0.505
-0.545
-0.555
-0.52
-0.505
-0.47
-0.455
-0.44
-0.41
-0.365
-0.345
-0.34
-0.345
-0.355
-0.355
-0.34
-0.32
-0.325
-0.35
-0.34
-0.335
-0.325
-0.32
-0.32
-0.325
-0.335
-0.33
-0.315
-0.305
-0.305
-0.33
-0.32
-0.31
-0.31
-0.305
-0.295
-0.3
-0.31
-0.305
-0.29
-0.28
-0.27
-0.28
-0.28
-0.275
-0.255
-0.235
-0.25
-0.265
-0.26
-0.235
-0.22
-0.215
-0.2
-0.2
-0.195
-0.185
-0.17
-0.15
-0.145
-0.14
-0.13
-0.13
-0.1
-0.08
-0.075
-0.08
-0.065
-0.04
-0.03
-0.015
-0.015
-0.015
0.0
0.025
0.035
0.035
0.04
0.035
0.045
0.055
0.08
0.1
0.095
0.085
0.08
0.07
0.075
0.075
0.045
0.015
-0.025
-0.03
-0.04
-0.05
-0.085
-0.11
-0.135
-0.15
-0.16
-0.165
-0.18
-0.21
-0.215
-0.21
-0.21
-0.21
-0.22
-0.25
-0.275
-0.265
-0.26
-0.26
-0.26
-0.29
-0.305
-0.29
-0.285
-0.265
-0.28
-0.295
-0.31
-0.295
-0.28
-0.285
-0.28
-0.305
-0.305
-0.29
-0.29
-0.29
-0.295
-0.3
-0.305
-0.285
-0.27
-0.27
-0.28
-0.305
-0.3
-0.295
-0.28
-0.28
-0.3
-0.295
-0.305
-0.295
-0.295
-0.29
-0.29
-0.305
-0.31
-0.295
-0.3
-0.275
-0.295
-0.305
-0.315
-0.3
-0.29
-0.295
-0.29
-0.315
-0.33
-0.33
-0.29
-0.285
-0.285
-0.29
-0.305
-0.305
-0.285
-0.285
-0.295
-0.29
-0.305
-0.285
-0.305
-0.29
-0.285
-0.31
-0.33
-0.33
-0.32
-0.305
-0.31
-0.33
-0.335
-0.305
-0.285
-0.27
-0.265
-0.28
-0.285
-0.28
-0.28
-0.25
-0.255
-0.27
-0.26
-0.245
-0.235
-0.2
-0.195
-0.21
-0.23
-0.235
-0.23
-0.225
-0.23
-0.255
-0.255
-0.27
-0.26
-0.27
-0.285
-0.28
-0.285
-0.27
-0.275
-0.255
-0.28
-0.31
-0.335
-0.325
-0.315
-0.32
-0.335
-0.35
-0.36
-0.335
-0.32
-0.305
-0.315
-0.34
-0.34
-0.34
-0.33
-0.325
-0.33
-0.365
-0.365
-0.355
-0.34
-0.335
-0.345
-0.35
-0.35
-0.345
-0.33
-0.32
-0.34
-0.33
-0.335
-0.33
-0.31
-0.305
-0.305
-0.325
-0.325
-0.3
-0.28
-0.26
-0.26
-0.25
-0.255
-0.215
-0.135
-0.065
0.025
0.085
0.155
0.25
0.31
0.33
0.305
0.255
0.185
0.12
0.095
0.07
0.08
0.13
0.235
0.36
0.505
0.63
0.705
0.755
0.755
0.705
0.66
0.59
0.515
0.43
0.34
0.26
0.185
0.07
-0.04
-0.175
-0.29
-0.365
-0.42
-0.455
-0.485
-0.465
-0.45
-0.425
-0.405
-0.385
-0.37
-0.37
-0.385
-0.39
-0.38
-0.38
-0.39
-0.4
-0.395
-0.4
-0.375
-0.355
-0.375
-0.39
-0.395
-0.385
-0.375
-0.375
-0.365
-0.37
-0.385
-0.385
-0.365
-0.37
-0.355
-0.37
-0.375
-0.355
-0.345
-0.315
-0.325
-0.335
-0.345
-0.34
-0.335
-0.315
-0.305
-0.315
-0.31
-0.295
-0.285
-0.27
-0.265
-0.265
-0.27
-0.255
-0.225
-0.215
-0.205
-0.22
-0.2
-0.19
-0.17
-0.155
-0.145
-0.145
-0.14
-0.13
-0.09
-0.07
-0.05
-0.075
-0.07
-0.045
-0.025
0.005
0.02
0.03
0.04
0.065
0.09
0.12
0.13
0.115
0.105
0.11
0.125
0.115
0.105
0.07
0.05
0.04
0.025
0.01
-0.015
-0.055
-0.09
-0.09
-0.095
-0.1
-0.12
-0.145
-0.155
-0.15
-0.145
-0.155
-0.14
-0.175
-0.17
-0.17
-0.165
-0.15
-0.165
-0.175
-0.185
-0.165
-0.16
-0.16
-0.165
-0.175
-0.185
-0.18
-0.165
-0.15
-0.165
-0.175
-0.175
-0.175
-0.155
-0.155
-0.16
-0.16
-0.17
-0.15
-0.15
-0.155
-0.15
-0.16
-0.17
-0.15
-0.135
-0.13
-0.145
-0.15
-0.16
-0.155
-0.13
-0.13
-0.135
-0.145
-0.145
-0.145
-0.125
-0.105
-0.12
-0.135
-0.15
-0.14
-0.13
-0.125
-0.135
-0.145
-0.165
-0.16
-0.125
-0.125
-0.125
-0.13
-0.145
-0.135
-0.135
-0.12
-0.125
-0.14
-0.15
-0.14
-0.13
-0.135
-0.13
-0.15
-0.155
-0.16
-0.145
-0.135
-0.145
-0.15
-0.15
-0.155
-0.14
-0.125
-0.135
-0.155
-0.16
-0.145
-0.125
-0.105
-0.105
-0.12
-0.13
-0.13
-0.11
-0.1
-0.1
-0.11
-0.1
-0.095
-0.08
-0.05
-0.065
-0.07
-0.08
-0.075
-0.075
-0.08
-0.08
-0.1
-0.105
-0.095
-0.085
-0.09
-0.115
-0.13
-0.15
-0.14
-0.125
-0.12
-0.12
-0.145
-0.15
-0.15
-0.145
-0.135
-0.14
-0.155
-0.175
-0.18
-0.175
-0.17
-0.175
-0.19
-0.205
-0.18
-0.19
-0.17
-0.19
-0.195
-0.2
-0.19
-0.18
-0.185
-0.19
-0.205
-0.22
-0.215
-0.21
-0.195
-0.21
-0.2
-0.22
-0.205
-0.2
-0.185
-0.205
-0.205
-0.2
-0.21
-0.175
-0.18
-0.175
-0.18
-0.2
-0.18
-0.16
-0.145
-0.135
-0.13
-0.115
-0.08
-0.005
0.075
0.15
0.235
0.305
0.335
0.365
0.34
0.28
0.205
0.16
0.155
0.225
0.345
0.49
0.6
0.72
0.835
0.925
0.955
0.885
0.765
0.66
0.58
0.52
0.435
0.305
0.17
0.025
-0.135
-0.235
-0.315
-0.365
-0.405
-0.425
-0.4
-0.34
-0.31
-0.29
-0.265
-0.27
-0.27
-0.25
-0.245
-0.26
-0.26
-0.275
-0.26
-0.26
-0.25
-0.255
-0.27
-0.27
-0.26
-0.245
-0.24
-0.24
-0.27
-0.27
-0.26
-0.25
-0.245
-0.245
-0.245
-0.275
-0.265
-0.245
-0.24
-0.24
-0.255
-0.25
-0.24
-0.23
-0.22
-0.21
-0.225
-0.22
-0.235
-0.195
-0.175
-0.175
-0.18
-0.18
-0.16
-0.145
-0.13
-0.125
-0.115
-0.115
-0.095
-0.08
-0.06
-0.065
-0.065
-0.06
-0.035
-0.02
0.01
0.02
0.015
0.025
0.035
0.065
0.085
0.105
0.12
0.115
0.15
0.185
0.19
0.19
0.175
0.16
0.16
0.155
0.135
0.115
0.08
0.05
0.04
0.035
0.035
0.005
-0.03
-0.045
-0.08
-0.06
-0.055
-0.07
-0.095
-0.11
-0.105
-0.095
-0.09
-0.11
-0.125
-0.145
-0.15
-0.14
-0.13
-0.135
-0.13
-0.14
-0.15
-0.14
-0.125
-0.13
-0.14
-0.155
-0.14
-0.13
-0.11
-0.125
-0.14
-0.16
-0.14
-0.135
-0.115
-0.13
-0.15
-0.155
-0.15
-0.135
-0.13
-0.14
-0.145
-0.16
-0.145
-0.135
-0.135
-0.14
-0.165
-0.165
-0.165
-0.155
-0.14
-0.14
-0.17
-0.18
-0.17
-0.16
-0.15
-0.17
-0.175
-0.175
-0.175
-0.17
-0.155
-0.17
-0.18
-0.185
-0.18
-0.18
-0.16
-0.17
-0.175
-0.2
-0.19
-0.17
-0.16
-0.175
-0.18
-0.19
-0.195
-0.18
-0.175
-0.17
-0.19
-0.205
-0.2
-0.17
-0.155
-0.18
-0.185
-0.19
-0.185
-0.17
-0.16
-0.165
-0.185
-0.175
-0.175
-0.14
-0.125
-0.13
-0.14
-0.15
-0.14
-0.12
-0.12
-0.11
-0.115
-0.11
-0.11
-0.08
-0.07
-0.085
-0.105
-0.13
-0.115
-0.11
-0.1
-0.125
-0.15
-0.155
-0.145
-0.145
-0.14
-0.15
-0.165
-0.175
-0.175
-0.175
-0.165
-0.165
-0.18
-0.19
-0.195
-0.195
-0.19
-0.215
-0.225
-0.22
-0.205
-0.19
-0.19
-0.205
-0.225
-0.25
-0.24
-0.21
-0.22
-0.225
-0.24
-0.24
-0.235
-0.22
-0.21
-0.22
-0.22
-0.24
-0.25
-0.22
-0.21
-0.22
-0.225
-0.23
-0.235
-0.22
-0.21
-0.22
-0.225
-0.25
-0.23
-0.21
-0.195
-0.21
-0.195
-0.185
-0.165
-0.125
-0.1
-0.06
-0.005
0.07
0.16
0.215
0.25
0.25
0.19
0.115
0.07
0.06
0.1
0.175
0.3
0.43
0.585
0.73
0.83
0.865
0.835
0.715
0.62
0.525
0.43
0.315
0.18
0.025
-0.13
-0.245
-0.335
-0.42
-0.48
-0.51
-0.5
-0.45
-0.39
-0.355
-0.34
-0.34
-0.3
-0.3
-0.28
-0.295
-0.31
-0.33
-0.295
-0.305
-0.29
-0.29
-0.29
-0.305
-0.285
-0.275
-0.255
-0.265
-0.28
-0.285
-0.275
-0.27
-0.255
-0.26
-0.27
-0.275
-0.27
-0.255
-0.235
-0.245
-0.26
-0.245
-0.24
-0.215
-0.2
-0.215
-0.21
-0.215
-0.21
-0.185
-0.165
-0.17
-0.175
-0.17
-0.165
-0.14
-0.105
-0.115
-0.11
-0.11
-0.085
-0.05
-0.03
-0.035
-0.035
-0.015
-0.005
0.015
0.035
0.045
0.025
0.025
0.065
0.09
0.11
0.105
0.115
0.115
0.135
0.16
0.175
0.175
0.155
0.13
0.105
0.105
0.11
0.085
0.04
0.01
-0.015
-0.02
-0.025
-0.045
-0.08
-0.105
-0.12
-0.115
-0.12
-0.135
-0.165
-0.16
-0.17
-0.155
-0.145
-0.145
-0.18
-0.185
-0.175
-0.17
-0.155
-0.175
-0.19
-0.205
-0.18
-0.17
-0.16
-0.17
-0.195
-0.21
-0.2
-0.185
-0.175
-0.19
-0.215
-0.205
-0.205
-0.185
-0.185
-0.185
-0.21
-0.23
-0.21
-0.2
-0.19
-0.2
-0.205
-0.215
-0.22
-0.21
-0.205
-0.21
-0.21
-0.23
-0.225
-0.205
-0.2
-0.205
-0.215
-0.225
-0.215
-0.21
-0.205
-0.21
-0.23
-0.23
-0.22
-0.22
-0.2
-0.215
-0.23
-0.235
-0.23
-0.235
-0.22
-0.225
-0.24
-0.25
-0.245
-0.23
-0.225
-0.24
-0.25
-0.24
-0.24
-0.23
-0.225
-0.235
-0.265
-0.27
-0.26
-0.245
-0.24
-0.235
-0.26
-0.25
-0.26
-0.235
-0.23
-0.24
-0.245
-0.255
-0.255
-0.225
-0.21
-0.21
-0.215
-0.22
-0.21
-0.2
-0.19
-0.2
-0.205
-0.22
-0.195
-0.175
-0.17
-0.17
-0.205
-0.2
-0.185
-0.185
-0.175
-0.19
-0.205
-0.22
-0.23
-0.225
-0.205
-0.23
-0.25
-0.27
-0.255
-0.255
-0.25
-0.265
-0.275
-0.31
-0.31
-0.28
-0.29
-0.285
-0.315
-0.325
-0.325
-0.3
-0.285
-0.3
-0.32
-0.335
-0.32
-0.31
-0.31
-0.325
-0.33
-0.34
-0.34
-0.32
-0.315
-0.33
-0.34
-0.35
-0.345
-0.335
-0.325
-0.315
-0.34
-0.335
-0.34
-0.33
-0.315
-0.32
-0.32
-0.34
-0.315
-0.315
-0.315
-0.315
-0.315
-0.32
-0.31
-0.29
-0.26
-0.265
-0.26
-0.23
-0.165
-0.07
0.01
0.095
0.15
0.17
0.185
0.165
0.09
-0.02
-0.09
-0.1
-0.04
0.085
0.255
0.41
0.525
0.62
0.7
0.74
0.7
0.59
0.47
0.355
0.24
0.13
0.025
-0.105
-0.235
-0.36
-0.45
-0.495
-0.54
-0.565
-0.56
-0.535
-0.495
-0.445
-0.42
-0.39
-0.41
-0.41
-0.415
-0.395
-0.385
-0.39
-0.415
-0.41
-0.42
-0.415
-0.39
-0.385
-0.395
-0.4
-0.38
-0.37
-0.355
-0.355
-0.365
-0.385
-0.37
-0.365
-0.345
-0.35
-0.355
-0.35
-0.345
-0.325
-0.315
-0.305
-0.315
-0.325
-0.305
-0.28
-0.275
-0.27
-0.265
-0.29
-0.26
-0.215
-0.205
-0.19
-0.2
-0.19
-0.17
-0.155
-0.13
-0.115
-0.11
-0.1
-0.09
-0.07
-0.035
-0.045
-0.035
-0.035
-0.015
0.01
0.055
0.05
0.07
0.07
0.085
0.09
0.11
0.1
0.065
0.01
0.01
-0.005
-0.02
-0.05
-0.09
-0.135
-0.155
-0.17
-0.165
-0.17
-0.195
-0.225
-0.225
-0.22
-0.235
-0.235
-0.25
-0.255
-0.25
-0.24
-0.23
-0.245
-0.265
-0.26
-0.26
-0.245
-0.235
-0.24
-0.255
-0.27
-0.265
-0.24
-0.235
-0.235
-0.26
-0.26
-0.255
-0.245
-0.235
-0.235
-0.245
-0.26
-0.25
-0.24
-0.23
-0.235
-0.26
-0.275
-0.275
-0.24
-0.24
-0.24
-0.25
-0.265
-0.25
-0.23
-0.22
-0.225
-0.24
-0.25
-0.25
-0.24
-0.22
-0.235
-0.245
-0.255
-0.25
-0.24
-0.23
-0.23
-0.25
-0.255
-0.255
-0.23
-0.22
-0.22
-0.235
-0.235
-0.25
-0.23
-0.21
-0.24
-0.24
-0.245
-0.25
-0.23
-0.22
-0.225
-0.235
-0.25
-0.24
-0.225
-0.22
-0.225
-0.24
-0.25
-0.24
-0.235
-0.205
-0.205
-0.205
-0.21
-0.195
-0.19
-0.18
-0.18
-0.185
-0.195
-0.185
-0.155
-0.13
-0.14
-0.14
-0.135
-0.14
-0.12
-0.12
-0.13
-0.15
-0.165
-0.15
-0.16
-0.16
-0.16
-0.175
-0.19
-0.175
-0.175
-0.17
-0.175
-0.19
-0.21
-0.22
-0.215
-0.185
-0.195
-0.205
-0.23
-0.225
-0.225
-0.21
-0.225
-0.245
-0.24
-0.235
-0.215
-0.205
-0.21
-0.225
-0.25
-0.24
-0.23
-0.23
-0.235
-0.24
-0.26
-0.245
-0.24
-0.22
-0.225
-0.235
-0.255
-0.245
-0.24
-0.22
-0.22
-0.24
-0.245
-0.245
-0.235
-0.21
-0.225
-0.24
-0.24
-0.245
-0.23
-0.2
-0.215
-0.225
-0.24
-0.215
-0.19
-0.175
-0.155
-0.15
-0.135
-0.1
-0.045
0.015
0.08
0.125
0.175
0.24
0.27
0.28
0.225
0.155
0.07
0.025
0.05
0.105
0.185
0.275
0.39
0.54
0.66
0.745
0.79
0.76
0.69
0.6
0.535
0.455
0.37
0.275
0.175
0.07
-0.035
-0.13
-0.24
-0.325
-0.41
-0.435
-0.435
-0.43
-0.41
-0.4
-0.385
-0.35
-0.295
-0.26
-0.265
-0.275
-0.275
-0.275
-0.275
-0.265
-0.27
-0.265
-0.28
-0.27
-0.265
-0.245
-0.245
-0.27
-0.27
-0.265
-0.26
-0.24
-0.25
-0.245
-0.25
-0.245
-0.24
-0.215
-0.23
-0.245
-0.25
-0.235
-0.21
-0.195
-0.195
-0.22
-0.21
-0.21
-0.185
-0.17
-0.18
-0.17
-0.17
-0.17
-0.16
-0.14
-0.13
-0.13
-0.125
-0.12
-0.105
-0.08
-0.08
-0.075
-0.075
-0.055
-0.03
-0.01
-0.015
-0.015
-0.005
0.01
0.02
0.045
0.055
0.045
0.05
0.065
0.085
0.11
0.125
0.125
0.13
0.145
0.17
0.18
0.21
0.205
0.2
0.19
0.2
0.21
0.175
0.14
0.115
0.095
0.09
0.085
0.055
0.015
-0.01
-0.025
-0.02
-0.025
-0.05
-0.08
-0.09
-0.1
-0.09
-0.085
-0.095
-0.115
-0.14
-0.13
-0.125
-0.1
-0.115
-0.13
-0.14
-0.145
-0.145
-0.115
-0.115
-0.13
-0.155
-0.145
-0.14
-0.125
-0.125
-0.14
-0.145
-0.14
-0.14
-0.12
-0.12
-0.14
-0.135
-0.13
-0.115
-0.105
-0.125
-0.13
-0.14
-0.135
-0.125
-0.105
-0.115
-0.135
-0.135
-0.15
-0.125
-0.11
-0.12
-0.135
-0.155
-0.155
-0.13
-0.12
-0.125
-0.15
-0.16
-0.155
-0.14
-0.13
-0.14
-0.145
-0.17
-0.165
-0.15
-0.125
-0.135
-0.15
-0.16
-0.155
-0.14
-0.125
-0.15
-0.165
-0.18
-0.17
-0.155
-0.15
-0.15
-0.165
-0.18
-0.16
-0.155
-0.15
-0.16
-0.165
-0.17
-0.175
-0.17
-0.155
-0.145
-0.17
-0.19
-0.185
-0.16
-0.155
-0.16
-0.16
-0.155
-0.14
-0.125
-0.105
-0.11
-0.135
-0.15
-0.14
-0.115
-0.1
-0.09
-0.1
-0.1
-0.09
-0.075
-0.065
-0.06
-0.09
-0.11
-0.105
-0.095
-0.085
-0.1
-0.115
-0.115
-0.135
-0.13
-0.115
-0.14
-0.16
-0.16
-0.17
-0.145
-0.14
-0.145
-0.165
-0.19
-0.185
-0.16
-0.155
-0.17
-0.215
-0.22
-0.205
-0.205
-0.18
-0.185
-0.2
-0.21
-0.215
-0.2
-0.205
-0.22
-0.22
-0.225
-0.225
-0.205
-0.2
-0.2
-0.225
-0.235
-0.23
-0.21
-0.205
-0.21
-0.235
-0.22
-0.225
-0.205
-0.195
-0.205
-0.215
-0.22
-0.22
-0.205
-0.19
-0.21
-0.215
-0.22
-0.21
-0.2
-0.195
-0.2
-0.195
-0.18
-0.155
-0.115
-0.09
-0.065
-0.03
0.01
0.09
0.17
0.22
0.265
0.275
0.235
0.195
0.135
0.08
0.065
0.08
0.135
0.245
0.385
0.52
0.645
0.74
0.815
0.85
0.835
0.77
0.645
0.56
0.48
0.385
0.31
0.235
0.12
-0.015
-0.13
-0.25
-0.33
-0.39
-0.43
-0.47
-0.485
-0.465
-0.405
-0.37
-0.345
-0.305
-0.3
-0.295
-0.285
-0.28
-0.275
-0.285
-0.29
-0.285
-0.27
-0.26
-0.26
-0.26
-0.285
-0.28
-0.265
-0.25
-0.25
-0.26
-0.265
-0.26
-0.245
-0.24
-0.23
-0.25
-0.25
-0.245
-0.235
-0.225
-0.23
-0.245
-0.235
-0.225
-0.21
-0.195
-0.2
-0.205
-0.205
-0.215
-0.195
-0.16
-0.16
-0.175
-0.175
-0.175
-0.15
-0.135
-0.145
-0.135
-0.135
-0.11
-0.095
-0.095
-0.085
-0.095
-0.09
-0.07
-0.03
-0.005
-0.01
-0.005
-0.005
0.0
0.035
0.055
0.055
0.055
0.05
0.07
0.105
0.105
0.12
0.13
0.125
0.145
0.165
0.185
0.185
0.175
0.16
0.145
0.15
0.135
0.11
0.08
0.035
0.025
0.01
0.015
-0.01
-0.04
-0.065
-0.095
-0.095
-0.08
-0.105
-0.115
-0.135
-0.15
-0.14
-0.14
-0.145
-0.155
-0.17
-0.17
-0.15
-0.155
-0.17
-0.185
-0.185
-0.185
-0.17
-0.16
-0.165
-0.175
-0.185
-0.185
-0.175
-0.165
-0.175
-0.195
-0.195
-0.21
-0.185
-0.18
-0.19
-0.19
-0.195
-0.205
-0.185
-0.175
-0.18
-0.19
-0.215
-0.2
-0.19
-0.18
-0.185
-0.185
-0.2
-0.2
-0.18
-0.175
-0.185
-0.19
-0.21
-0.2
-0.19
-0.175
-0.19
-0.195
-0.21
-0.2
-0.19
-0.18
-0.19
-0.22
-0.235
-0.21
-0.205
-0.195
-0.205
-0.205
-0.22
-0.21
-0.2
-0.195
-0.2
-0.205
-0.22
-0.215
-0.2
-0.195
-0.205
-0.21
-0.215
-0.23
-0.2
-0.205
-0.21
-0.22
-0.24
-0.22
-0.215
-0.195
-0.2
-0.22
-0.21
-0.215
-0.205
-0.19
-0.195
-0.19
-0.2
-0.18
-0.17
-0.145
-0.155
-0.155
-0.16
-0.155
-0.125
-0.12
-0.115
-0.13
-0.14
-0.13
-0.125
-0.12
-0.115
-0.15
-0.17
-0.16
-0.15
-0.15
-0.16
-0.18
-0.195
-0.2
-0.19
-0.19
-0.19
-0.2
-0.22
-0.22
-0.21
-0.195
-0.2
-0.225
-0.245
-0.25
-0.235
-0.23
-0.225
-0.245
-0.26
-0.25
-0.25
-0.24
-0.25
-0.27
-0.275
-0.285
-0.27
-0.25
-0.255
-0.27
-0.28
-0.295
-0.27
-0.265
-0.27
-0.285
-0.29
-0.28
-0.27
-0.255
-0.26
-0.28
-0.29
-0.295
-0.28
-0.265
-0.26
-0.275
-0.285
-0.285
-0.27
-0.245
-0.245
-0.25
-0.24
-0.22
-0.19
-0.145
-0.115
-0.085
-0.03
0.03
0.1
0.155
0.19
0.19
0.145
0.085
0.03
-0.025
-0.04
-0.035
0.04
0.17
0.335
0.47
0.595
0.665
0.705
0.69
0.625
0.535
0.42
0.29
0.18
0.085
-0.035
-0.14
-0.255
-0.365
-0.455
-0.51
-0.545
-0.565
-0.575
-0.58
-0.555
-0.505
-0.45
-0.41
-0.385
-0.385
-0.38
-0.385
-0.37
-0.36
-0.36
-0.365
-0.375
-0.38
-0.355
-0.345
-0.365
-0.365
-0.375
-0.375
-0.34
-0.335
-0.345
-0.36
-0.375
-0.36
-0.34
-0.32
-0.33
-0.34
-0.35
-0.345
-0.33
-0.32
-0.315
-0.32
-0.33
-0.32
-0.295
-0.28
-0.29
-0.29
-0.29
-0.3
-0.28
-0.265
-0.26
-0.255
-0.255
-0.255
-0.235
-0.21
-0.2
-0.2
-0.205
-0.185
-0.165
-0.15
-0.14
-0.155
-0.135
-0.115
-0.09
-0.06
-0.065
-0.065
-0.08
-0.075
-0.045
-0.005
-0.005
0.0
0.0
0.015
0.035
0.055
0.075
0.065
0.065
0.06
0.08
0.09
0.07
0.055
0.03
0.01
0.01
-0.025
-0.025
-0.075
-0.105
-0.12
-0.135
-0.14
-0.165
-0.2
-0.235
-0.23
-0.225
-0.225
-0.25
-0.27
-0.295
-0.295
-0.29
-0.27
-0.275
-0.295
-0.3
-0.305
-0.31
-0.295
-0.305
-0.315
-0.335
-0.32
-0.315
-0.295
-0.295
-0.325
-0.33
-0.325
-0.3
-0.29
-0.3
-0.325
-0.33
-0.32
-0.3
-0.3
-0.3
-0.32
-0.33
-0.33
-0.32
-0.305
-0.31
-0.32
-0.32
-0.33
-0.325
-0.32
-0.315
-0.33
-0.325
-0.335
-0.315
-0.29
-0.305
-0.31
-0.325
-0.32
-0.31
-0.305
-0.29
-0.305
-0.315
-0.32
-0.31
-0.3
-0.305
-0.32
-0.34
-0.33
-0.32
-0.315
-0.33
-0.33
-0.335
-0.345
-0.315
-0.31
-0.315
-0.33
-0.335
-0.33
-0.33
-0.31
-0.315
-0.335
-0.335
-0.335
-0.325
-0.325
-0.32
-0.325
-0.35
-0.325
-0.305
-0.29
-0.29
-0.3
-0.305
-0.295
-0.28
-0.255
-0.27
-0.28
-0.275
-0.26
-0.245
-0.24
-0.25
-0.24
-0.23
-0.235
-0.23
-0.22
-0.225
-0.24
-0.255
-0.275
-0.255
-0.25
-0.26
-0.28
-0.31
-0.295
-0.285
-0.29
-0.29
-0.305
-0.325
-0.335
-0.315
-0.3
-0.345
-0.335
-0.35
-0.355
-0.335
-0.315
-0.315
-0.33
-0.335
-0.345
-0.325
-0.33
-0.335
-0.34
-0.345
-0.335
-0.34
-0.32
-0.33
-0.335
-0.345
-0.35
-0.32
-0.31
-0.315
-0.33
-0.335
-0.33
-0.315
-0.305
-0.305
-0.295
-0.31
-0.29
-0.265
-0.225
-0.195
-0.17
-0.11
-0.03
0.045
0.125
0.16
0.185
0.155
0.105
0.03
-0.035
-0.1
-0.085
-0.02
0.085
0.21
0.35
0.445
0.52
0.57
0.615
0.58
0.535
0.425
0.32
0.24
0.125
0.05
-0.005
-0.12
-0.23
-0.325
-0.405
-0.47
-0.485
-0.52
-0.525
-0.505
-0.465
-0.42
-0.39
-0.365
-0.36
-0.36
-0.36
-0.335
-0.33
-0.345
-0.36
-0.34
-0.345
-0.33
-0.315
-0.32
-0.32
-0.335
-0.315
-0.305
-0.295
-0.32
-0.315
-0.33
-0.325
-0.31
-0.295
-0.29
-0.3
-0.305
-0.3
-0.29
-0.265
-0.27
-0.285
-0.275
-0.265
-0.255
-0.24
-0.23
-0.235
-0.25
-0.235
-0.215
-0.18
-0.195
-0.195
-0.195
-0.175
-0.165
-0.13
-0.125
-0.135
-0.125
-0.12
-0.105
-0.085
-0.07
-0.06
-0.06
-0.04
-0.015
0.005
0.015
0.015
0.02
0.02
0.045
0.075
0.085
0.09
0.085
0.11
0.13
0.16
0.155
0.14
0.14
0.14
0.15
0.125
0.11
0.085
0.055
0.035
0.02
0.015
-0.005
-0.03
-0.065
-0.075
-0.095
-0.085
-0.105
-0.13
-0.155
-0.16
-0.145
-0.155
-0.15
-0.18
-0.2
-0.2
-0.19
-0.195
-0.175
-0.19
-0.2
-0.19
-0.2
-0.175
-0.17
-0.19
-0.2
-0.2
-0.195
-0.19
-0.2
-0.2
-0.205
-0.2
-0.19
-0.165
-0.185
-0.195
-0.2
-0.215
-0.19
-0.165
-0.175
-0.185
-0.195
-0.19
-0.18
-0.165
-0.18
-0.185
-0.185
-0.195
-0.175
-0.165
-0.18
-0.185
-0.19
-0.205
-0.19
-0.175
-0.18
-0.195
-0.205
-0.215
-0.2
-0.18
-0.195
-0.2
-0.2
-0.22
-0.2
-0.18
-0.2
-0.195
-0.215
-0.225
-0.195
-0.185
-0.19
-0.205
-0.21
-0.225
-0.215
-0.2
-0.195
-0.195
-0.215
-0.215
-0.2
-0.195
-0.215
-0.235
-0.235
-0.225
-0.215
-0.2
-0.2
-0.205
-0.22
-0.215
-0.205
-0.185
-0.185
-0.185
-0.18
-0.185
-0.17
-0.15
-0.15
-0.16
-0.155
-0.155
-0.135
-0.11
-0.105
-0.115
-0.15
-0.135
-0.14
-0.14
-0.135
-0.15
-0.165
-0.175
-0.175
-0.165
-0.175
-0.18
-0.195
-0.2
-0.19
-0.19
-0.2
-0.2
-0.215
-0.205
-0.195
-0.2
-0.2
-0.235
-0.265
-0.27
-0.25
-0.23
-0.24
-0.235
-0.26
-0.25
-0.255
-0.245
-0.265
-0.27
-0.3
-0.295
-0.265
-0.245
-0.25
-0.265
-0.285
-0.28
-0.27
-0.26
-0.255
-0.28
-0.275
-0.275
-0.26
-0.25
-0.245
-0.26
-0.27
-0.265
-0.255
-0.25
-0.25
-0.27
-0.26
-0.25
-0.225
-0.2
-0.175
-0.16
-0.15
-0.1
-0.04
0.045
0.09
0.155
0.185
0.18
0.17
0.13
0.04
-0.02
-0.055
-0.03
0.045
0.18
0.29
0.42
0.53
0.655
0.735
0.775
0.7
0.585
0.46
0.365
0.285
0.21
0.09
-0.05
-0.18
-0.31
-0.395
-0.455
-0.49
-0.535
-0.515
-0.5
-0.435
-0.395
-0.355
-0.35
-0.345
-0.31
-0.305
-0.3
-0.305
-0.315
-0.31
-0.305
-0.3
-0.27
-0.265
-0.29
-0.305
-0.295
-0.275
-0.255
-0.265
-0.27
-0.295
-0.29
-0.29
-0.275
-0.28
-0.305
-0.295
-0.29
-0.27
-0.24
-0.23
-0.23
-0.255
-0.24
-0.23
-0.2
-0.195
-0.21
-0.225
-0.22
-0.2
-0.165
-0.16
-0.175
-0.175
-0.16
-0.14
-0.12
-0.125
-0.13
-0.14
-0.135
-0.11
-0.075
-0.07
-0.065
-0.07
-0.055
-0.035
-0.015
-0.005
-0.005
-0.005
0.015
0.03
0.065
0.075
0.07
0.055
0.085
0.11
0.135
0.13
0.145
0.13
0.135
0.165
0.155
0.125
0.095
0.065
0.02
0.02
0.0
-0.01
-0.04
-0.08
-0.085
-0.09
-0.09
-0.1
-0.125
-0.16
-0.165
-0.17
-0.16
-0.165
-0.19
-0.22
-0.21
-0.205
-0.185
-0.2
-0.21
-0.225
-0.205
-0.2
-0.2
-0.21
-0.21
-0.22
-0.215
-0.21
-0.19
-0.205
-0.225
-0.24
-0.23
-0.21
-0.185
-0.2
-0.2
-0.2
-0.205
-0.195
-0.2
-0.205
-0.235
-0.24
-0.23
-0.205
-0.19
-0.195
-0.21
-0.22
-0.215
-0.215
-0.21
-0.22
-0.24
-0.235
-0.23
-0.225
-0.21
-0.225
-0.22
-0.24
-0.245
-0.235
-0.225
-0.23
-0.235
-0.25
-0.235
-0.23
-0.215
-0.215
-0.245
-0.255
-0.255
-0.245
-0.23
-0.215
-0.255
-0.26
-0.245
-0.255
-0.235
-0.235
-0.235
-0.255
-0.26
-0.265
-0.25
-0.25
-0.27
-0.275
-0.255
-0.265
-0.235
-0.225
-0.235
-0.25
-0.255
-0.23
-0.2
-0.205
-0.215
-0.225
-0.22
-0.215
-0.19
-0.185
-0.195
-0.195
-0.195
-0.17
-0.14
-0.155
-0.15
-0.175
-0.165
-0.155
-0.145
-0.16
-0.19
-0.205
-0.215
-0.2
-0.185
-0.195
-0.21
-0.225
-0.22
-0.215
-0.215
-0.23
-0.255
-0.265
-0.27
-0.265
-0.235
-0.24
-0.26
-0.28
-0.305
-0.285
-0.27
-0.27
-0.275
-0.29
-0.285
-0.285
-0.275
-0.285
-0.295
-0.295
-0.3
-0.275
-0.27
-0.285
-0.3
-0.31
-0.32
-0.29
-0.29
-0.295
-0.305
-0.32
-0.305
-0.31
-0.285
-0.29
-0.31
-0.31
-0.32
-0.305
-0.28
-0.29
-0.295
-0.295
-0.29
-0.285
-0.255
-0.255
-0.245
-0.24
-0.22
-0.2
-0.14
-0.09
-0.05
0.02
0.075
0.105
0.135
0.1
0.03
-0.055
-0.11
-0.135
-0.08
-0.005
0.095
0.23
0.36
0.5
0.625
0.695
0.69
0.63
0.53
0.435
0.345
0.26
0.135
-0.01
-0.135
-0.255
-0.365
-0.455
-0.53
-0.57
-0.585
-0.565
-0.53
-0.49
-0.465
-0.43
-0.395
-0.365
-0.34
-0.335
-0.35
-0.37
-0.37
-0.35
-0.32
-0.335
-0.34
-0.345
-0.345
-0.33
-0.33
-0.31
-0.325
-0.33
-0.325
-0.31
-0.3
-0.315
-0.32
-0.34
-0.31
-0.32
-0.295
-0.285
-0.3
-0.305
-0.295
-0.28
-0.265
-0.265
-0.275
-0.275
-0.265
-0.25
-0.22
-0.225
-0.24
-0.225
-0.215
-0.195
-0.175
-0.165
-0.17
-0.17
-0.15
-0.14
-0.095
-0.1
-0.1
-0.095
-0.07
-0.05
-0.025
-0.02
-0.025
-0.025
-0.02
-0.01
0.02
0.03
0.035
0.045
0.06
0.08
0.1
0.1
0.1
0.08
0.085
0.08
0.07
0.045
0.025
-0.01
-0.04
-0.045
-0.05
-0.075
-0.115
-0.15
-0.16
-0.175
-0.18
-0.18
-0.2
-0.22
-0.22
-0.215
-0.205
-0.22
-0.245
-0.27
-0.265
-0.26
-0.25
-0.26
-0.27
-0.28
-0.295
-0.275
-0.26
-0.27
-0.26
-0.295
-0.28
-0.275
-0.25
-0.255
-0.275
-0.285
-0.285
-0.28
-0.255
-0.255
-0.265
-0.285
-0.305
-0.295
-0.255
-0.27
-0.295
-0.29
-0.295
-0.28
-0.285
-0.29
-0.295
-0.32
-0.32
-0.305
-0.31
-0.31
-0.315
-0.325
-0.32
-0.3
-0.285
-0.3
-0.31
-0.33
-0.335
-0.315
-0.3
-0.305
-0.32
-0.345
-0.345
-0.32
-0.325
-0.33
-0.345
-0.355
-0.36
-0.345
-0.325
-0.315
-0.325
-0.35
-0.345
-0.33
-0.32
-0.34
-0.34
-0.35
-0.335
-0.335
-0.335
-0.335
-0.34
-0.35
-0.355
-0.345
-0.335
-0.345
-0.35
-0.335
-0.345
-0.32
-0.31
-0.31
-0.315
-0.33
-0.32
-0.295
-0.275
-0.27
-0.27
-0.29
-0.285
-0.27
-0.27
-0.275
-0.32
-0.33
-0.305
-0.305
-0.3
-0.31
-0.335
-0.34
-0.345
-0.34
-0.325
-0.335
-0.355
-0.38
-0.38
-0.38
-0.365
-0.37
-0.39
-0.405
-0.415
-0.425
-0.41
-0.405
-0.42
-0.435
-0.435
-0.435
-0.415
-0.415
-0.425
-0.435
-0.44
-0.435
-0.435
-0.44
-0.445
-0.455
-0.445
-0.43
-0.425
-0.425
-0.43
-0.435
-0.45
-0.445
-0.415
-0.42
-0.43
-0.435
-0.455
-0.435
-0.415
-0.42
-0.43
-0.43
-0.425
-0.4
-0.38
-0.355
-0.345
-0.335
-0.31
-0.255
-0.185
-0.11
-0.065
-0.03
-0.01
-0.005
-0.02
-0.105
-0.225
-0.325
-0.37
-0.34
-0.245
-0.13
-0.005
0.13
0.255
0.36
0.43
0.45
0.385
0.27
0.17
0.09
0.005
-0.095
-0.195
-0.295
-0.395
-0.47
-0.53
-0.595
-0.65
-0.69
-0.695
-0.675
-0.63
-0.6
-0.56
-0.54
-0.525
-0.5
-0.495
-0.505
-0.51
-0.515
-0.505
-0.485
-0.47
-0.47
-0.505
-0.52
-0.525
-0.5
-0.485
-0.48
-0.48
-0.485
-0.48
-0.475
-0.465
-0.46
-0.48
-0.48
-0.485
-0.46
-0.445
-0.45
-0.445
-0.445
-0.425
-0.41
-0.39
-0.39
-0.395
-0.405
-0.385
-0.375
-0.34
-0.33
-0.345
-0.335
-0.32
-0.315
-0.285
-0.27
-0.27
-0.27
-0.25
-0.235
-0.22
-0.2
-0.195
-0.195
-0.185
-0.165
-0.14
-0.13
-0.13
-0.115
-0.125
-0.095
-0.065
-0.055
-0.055
-0.05
-0.05
-0.03
-0.045
-0.045
-0.055
-0.085
-0.11
-0.12
-0.145
-0.165
-0.21
-0.245
-0.265
-0.27
-0.285
-0.3
-0.315
-0.345
-0.36
-0.36
-0.355
-0.35
-0.375
-0.395
-0.4
-0.385
-0.385
-0.38
-0.405
-0.42
-0.42
-0.405
-0.405
-0.4
-0.405
-0.395
-0.4
-0.4
-0.38
-0.37
-0.39
-0.405
-0.41
-0.39
-0.365
-0.375
-0.37
-0.39
-0.39
-0.38
-0.35
-0.355
-0.365
-0.38
-0.385
-0.37
-0.365
-0.36
-0.37
-0.375
-0.39
-0.375
-0.355
-0.365
-0.365
-0.375
-0.375
-0.36
-0.35
-0.355
-0.37
-0.37
-0.375
-0.355
-0.345
-0.345
-0.375
-0.375
-0.39
-0.36
-0.35
-0.355
-0.37
-0.37
-0.385
-0.36
-0.35
-0.34
-0.355
-0.37
-0.37
-0.355
-0.345
-0.345
-0.355
-0.365
-0.36
-0.355
-0.345
-0.345
-0.345
-0.345
-0.35
-0.325
-0.295
-0.29
-0.3
-0.32
-0.32
-0.295
-0.28
-0.27
-0.27
-0.295
-0.28
-0.25
-0.235
-0.235
-0.24
-0.255
-0.27
-0.255
-0.255
-0.27
-0.28
-0.3
-0.305
-0.295
-0.28
-0.29
-0.29
-0.33
-0.32
-0.32
-0.3
-0.3
-0.32
-0.34
-0.34
-0.335
-0.32
-0.33
-0.35
-0.36
-0.365
-0.35
-0.33
-0.325
-0.35
-0.37
-0.375
-0.355
-0.33
-0.34
-0.355
-0.375
-0.39
-0.375
-0.36
-0.34
-0.355
-0.365
-0.375
-0.375
-0.34
-0.34
-0.35
-0.37
-0.37
-0.355
-0.345
-0.355
-0.355
-0.365
-0.37
-0.34
-0.33
-0.33
-0.34
-0.36
-0.345
-0.315
-0.275
-0.25
-0.245
-0.22
-0.16
-0.08
-0.005
0.065
0.11
0.135
0.13
0.115
0.075
0.005
-0.06
-0.075
-0.025
0.085
0.22
0.345
0.475
0.555
0.635
0.68
0.655
0.565
0.435
0.33
0.255
0.175
0.095
-0.01
-0.145
-0.27
-0.365
-0.435
-0.485
-0.525
-0.565
-0.585
-0.575
-0.54
-0.475
-0.465
-0.43
-0.43
-0.425
-0.405
-0.395
-0.39
-0.4
-0.405
-0.405
-0.415
-0.38
-0.375
-0.39
-0.415
-0.415
-0.38
-0.375
-0.38
-0.39
-0.405
-0.395
-0.39
-0.365
-0.37
-0.38
-0.395
-0.385
-0.365
-0.355
-0.355
-0.355
-0.365
-0.36
-0.35
-0.33
-0.32
-0.315
-0.34
-0.335
-0.315
-0.31
-0.29
-0.3
-0.305
-0.3
-0.28
-0.25
-0.245
-0.25
-0.26
-0.245
-0.225
-0.215
-0.205
-0.215
-0.19
-0.185
-0.165
-0.14
-0.125
-0.13
-0.13
-0.125
-0.105
-0.085
-0.075
-0.065
-0.065
-0.045
-0.03
0.0
0.015
0.01
0.02
0.015
0.04
0.07
0.055
0.045
0.02
0.0
-0.005
-0.005
-0.03
-0.06
-0.095
-0.105
-0.125
-0.12
-0.145
-0.17
-0.19
-0.2
-0.21
-0.21
-0.235
-0.24
-0.25
-0.26
-0.255
-0.245
-0.245
-0.27
-0.275
-0.275
-0.28
-0.255
-0.26
-0.27
-0.29
-0.285
-0.28
-0.285
-0.275
-0.265
-0.285
-0.27
-0.265
-0.25
-0.255
-0.27
-0.28
-0.28
-0.275
-0.245
-0.25
-0.265
-0.28
-0.27
-0.255
-0.255
-0.245
-0.26
-0.28
-0.27
-0.26
-0.24
-0.255
-0.26
-0.28
-0.28
-0.28
-0.25
-0.25
-0.275
-0.29
-0.27
-0.265
-0.25
-0.26
-0.27
-0.285
-0.29
-0.265
-0.265
-0.265
-0.27
-0.28
-0.285
-0.29
-0.265
-0.255
-0.27
-0.28
-0.29
-0.285
-0.27
-0.275
-0.275
-0.285
-0.285
-0.285
-0.26
-0.265
-0.27
-0.285
-0.29
-0.28
-0.275
-0.28
-0.29
-0.29
-0.29
-0.295
-0.26
-0.27
-0.28
-0.295
-0.285
-0.265
-0.23
-0.24
-0.26
-0.26
-0.23
-0.235
-0.205
-0.205
-0.21
-0.23
-0.225
-0.195
-0.175
-0.17
-0.19
-0.205
-0.215
-0.195
-0.19
-0.2
-0.215
-0.215
-0.245
-0.235
-0.22
-0.225
-0.25
-0.255
-0.25
-0.25
-0.255
-0.235
-0.26
-0.28
-0.285
-0.275
-0.25
-0.25
-0.275
-0.295
-0.31
-0.3
-0.295
-0.29
-0.295
-0.305
-0.31
-0.305
-0.3
-0.315
-0.33
-0.34
-0.32
-0.32
-0.3
-0.31
-0.315
-0.325
-0.34
-0.33
-0.305
-0.3
-0.32
-0.335
-0.335
-0.315
-0.315
-0.305
-0.31
-0.315
-0.32
-0.315
-0.3
-0.295
-0.31
-0.325
-0.31
-0.295
-0.275
-0.27
-0.265
-0.265
-0.25
-0.23
-0.16
-0.12
-0.065
-0.03
0.055
0.12
0.175
0.195
0.165
0.105
0.04
-0.005
-0.025
0.005
0.065
0.165
0.3
0.455
0.575
0.66
0.705
0.69
0.62
0.51
0.425
0.34
0.25
0.125
0.03
-0.08
-0.195
-0.3
-0.395
-0.485
-0.53
-0.54
-0.535
-0.515
-0.485
-0.455
-0.44
-0.4
-0.38
-0.37
-0.37
-0.385
-0.385
-0.365
-0.35
-0.36
-0.37
-0.37
-0.375
-0.355
-0.335
-0.34
-0.335
-0.35
-0.35
-0.35
-0.325
-0.335
-0.34
-0.35
-0.355
-0.32
-0.32
-0.3
-0.32
-0.335
-0.335
-0.32
-0.31
-0.295
-0.29
-0.295
-0.305
-0.28
-0.25
-0.255
-0.25
-0.255
-0.25
-0.24
-0.225
-0.22
-0.215
-0.23
-0.21
-0.165
-0.14
-0.12
-0.12
-0.13
-0.14
-0.12
-0.12
-0.115
-0.12
-0.125
-0.125
-0.08
-0.05
-0.05
-0.03
-0.035
-0.025
-0.015
0.005
0.025
0.05
0.045
0.04
0.08
0.095
0.1
0.09
0.085
0.085
0.09
0.095
0.085
0.055
0.03
0.0
-0.01
-0.015
-0.025
-0.075
-0.095
-0.115
-0.12
-0.115
-0.135
-0.155
-0.17
-0.18
-0.185
-0.2
-0.195
-0.2
-0.22
-0.23
-0.235
-0.21
-0.22
-0.23
-0.245
-0.27
-0.24
-0.225
-0.24
-0.245
-0.255
-0.26
-0.265
-0.23
-0.23
-0.245
-0.255
-0.245
-0.245
-0.22
-0.235
-0.25
-0.26
-0.28
-0.24
-0.23
-0.235
-0.255
-0.26
-0.265
-0.26
-0.24
-0.24
-0.245
-0.26
-0.265
-0.26
-0.25
-0.24
-0.24
-0.265
-0.265
-0.265
-0.245
-0.26
-0.26
-0.26
-0.28
-0.275
-0.25
-0.25
-0.25
-0.27
-0.27
-0.25
-0.245
-0.25
-0.26
-0.255
-0.27
-0.255
-0.24
-0.245
-0.265
-0.27
-0.28
-0.27
-0.255
-0.25
-0.255
-0.265
-0.275
-0.265
-0.26
-0.265
-0.265
-0.27
-0.275
-0.26
-0.25
-0.25
-0.27
-0.285
-0.29
-0.275
-0.265
-0.255
-0.275
-0.295
-0.295
-0.265
-0.245
-0.225
-0.23
-0.24
-0.245
-0.235
-0.21
-0.21
-0.225
-0.235
-0.225
-0.2
-0.19
-0.185
-0.185
-0.195
-0.195
-0.2
-0.195
-0.2
-0.21
-0.23
-0.225
-0.215
-0.23
-0.225
-0.245
-0.26
-0.275
-0.26
-0.255
-0.27
-0.275
-0.295
-0.295
-0.285
-0.28
-0.28
-0.285
-0.305
-0.325
-0.305
-0.29
-0.3
-0.3
-0.325
-0.335
-0.32
-0.305
-0.29
-0.31
-0.325
-0.335
-0.3
-0.305
-0.31
-0.32
-0.325
-0.325
-0.325
-0.31
-0.315
-0.31
-0.335
-0.335
-0.31
-0.3
-0.31
-0.32
-0.33
-0.345
-0.315
-0.295
-0.3
-0.31
-0.315
-0.315
-0.305
-0.27
-0.25
-0.245
-0.25
-0.215
-0.185
-0.12
-0.065
0.0
0.04
0.07
0.105
0.12
0.115
0.03
-0.045
-0.09
-0.09
-0.015
0.07
0.18
0.285
0.41
0.515
0.605
0.66
0.64
0.59
0.47
0.38
0.305
0.23
0.125
0.015
-0.095
-0.2
-0.305
-0.405
-0.49
-0.555
-0.605
-0.605
-0.57
-0.525
-0.505
-0.465
-0.445
-0.405
-0.38
-0.355
-0.365
-0.38
-0.395
-0.39
-0.365
-0.355
-0.37
-0.37
-0.365
-0.355
-0.345
-0.345
-0.345
-0.36
-0.365
-0.355
-0.335
-0.325
-0.345
-0.35
-0.335
-0.325
-0.3
-0.305
-0.31
-0.33
-0.33
-0.305
-0.29
-0.275
-0.28
-0.3
-0.3
-0.28
-0.265
-0.24
-0.25
-0.25
-0.25
-0.225
-0.21
-0.205
-0.2
-0.215
-0.205
-0.19
-0.18
-0.165
-0.155
-0.17
-0.165
-0.125
-0.115
-0.09
-0.08
-0.085
-0.07
-0.06
-0.035
-0.025
-0.035
-0.025
-0.02
0.0
0.025
0.045
0.05
0.055
0.05
0.06
0.105
0.115
0.095
0.08
0.075
0.07
0.065
0.05
0.03
0.0
-0.035
-0.035
-0.04
-0.07
-0.09
-0.125
-0.135
-0.145
-0.145
-0.165
-0.2
-0.22
-0.215
-0.22
-0.21
-0.21
-0.23
-0.235
-0.25
-0.24
-0.235
-0.24
-0.245
-0.255
-0.265
-0.265
-0.245
-0.235
-0.26
-0.26
-0.265
-0.28
-0.255
-0.245
-0.255
-0.26
-0.265
-0.26
-0.26
-0.255
-0.25
-0.27
-0.28
-0.26
-0.26
-0.245
-0.255
-0.27
-0.27
-0.265
-0.25
-0.24
-0.255
-0.265
-0.27
-0.27
-0.26
-0.255
-0.265
-0.265
-0.275
-0.26
-0.255
-0.255
-0.26
-0.29
-0.28
-0.265
-0.255
-0.27
-0.285
-0.285
-0.285
-0.285
-0.26
-0.265
-0.275
-0.295
-0.3
-0.29
-0.28
-0.28
-0.285
-0.3
-0.3
-0.285
-0.275
-0.275
-0.28
-0.29
-0.3
-0.285
-0.26
-0.265
-0.28
-0.3
-0.31
-0.305
-0.285
-0.265
-0.28
-0.305
-0.295
-0.295
-0.27
-0.255
-0.255
-0.265
-0.245
-0.245
-0.24
-0.235
-0.24
-0.235
-0.23
-0.21
-0.19
-0.19
-0.185
-0.19
-0.195
-0.185
-0.195
-0.2
-0.22
-0.23
-0.24
-0.24
-0.23
-0.235
-0.245
-0.255
-0.27
-0.27
-0.26
-0.25
-0.265
-0.275
-0.28
-0.285
-0.265
-0.265
-0.29
-0.31
-0.325
-0.315
-0.315
-0.295
-0.3
-0.3
-0.315
-0.31
-0.32
-0.325
-0.315
-0.32
-0.33
-0.33
-0.315
-0.31
-0.32
-0.33
-0.325
-0.32
-0.305
-0.305
-0.32
-0.34
-0.33
-0.325
-0.315
-0.31
-0.325
-0.325
-0.325
-0.325
-0.295
-0.285
-0.29
-0.305
-0.3
-0.255
-0.19
-0.15
-0.105
-0.05
0.015
0.075
0.125
0.14
0.105
0.025
-0.05
-0.105
-0.1
-0.05
0.025
0.125
0.255
0.41
0.515
0.6
0.645
0.63
0.54
0.455
0.365
0.255
0.165
0.04
-0.08
-0.17
-0.275
-0.37
-0.47
-0.545
-0.585
-0.6
-0.575
-0.535
-0.505
-0.485
-0.455
-0.425
-0.385
-0.375
-0.38
-0.385
-0.385
-0.375
-0.355
-0.355
-0.36
-0.365
-0.37
-0.355
-0.34
-0.35
-0.355
-0.37
-0.365
-0.345
-0.33
-0.325
-0.335
-0.345
-0.355
-0.335
-0.32
-0.3
-0.315
-0.32
-0.315
-0.3
-0.285
-0.275
-0.29
-0.29
-0.295
-0.265
-0.24
-0.235
-0.235
-0.245
-0.24
-0.225
-0.22
-0.205
-0.205
-0.21
-0.2
-0.18
-0.155
-0.145
-0.145
-0.14
-0.14
-0.125
-0.09
-0.075
-0.07
-0.085
-0.075
-0.055
-0.02
-0.005
-0.005
-0.005
0.005
0.015
0.035
0.065
0.065
0.045
0.055
0.085
0.12
0.115
0.1
0.095
0.095
0.08
0.09
0.075
0.035
0.015
-0.01
-0.03
-0.05
-0.07
-0.1
-0.125
-0.14
-0.155
-0.155
-0.18
-0.2
-0.215
-0.215
-0.215
-0.21
-0.225
-0.235
-0.245
-0.245
-0.245
-0.225
-0.25
-0.255
-0.265
-0.275
-0.265
-0.255
-0.245
-0.255
-0.27
-0.26
-0.275
-0.245
-0.23
-0.245
-0.255
-0.27
-0.255
-0.245
-0.24
-0.245
-0.255
-0.265
-0.25
-0.245
-0.25
-0.245
-0.255
-0.26
-0.255
-0.25
-0.24
-0.25
-0.25
-0.265
-0.26
-0.245
-0.245
-0.255
-0.265
-0.265
-0.27
-0.26
-0.26
-0.255
-0.28
-0.275
-0.265
-0.25
-0.25
-0.26
-0.27
-0.275
-0.265
-0.255
-0.25
-0.255
-0.275
-0.28
-0.27
-0.265
-0.25
-0.265
-0.275
-0.285
-0.285
-0.265
-0.255
-0.27
-0.285
-0.29
-0.295
-0.27
-0.27
-0.27
-0.285
-0.29
-0.29
-0.26
-0.265
-0.27
-0.29
-0.28
-0.26
-0.255
-0.245
-0.255
-0.275
-0.25
-0.235
-0.215
-0.215
-0.225
-0.23
-0.24
-0.24
-0.21
-0.19
-0.195
-0.195
-0.2
-0.185
-0.17
-0.17
-0.17
-0.2
-0.205
-0.195
-0.19
-0.185
-0.2
-0.215
-0.24
-0.23
-0.215
-0.215
-0.24
-0.255
-0.27
-0.26
-0.255
-0.245
-0.245
-0.275
-0.28
-0.285
-0.265
-0.265
-0.28
-0.315
-0.31
-0.305
-0.285
-0.27
-0.29
-0.315
-0.33
-0.315
-0.315
-0.31
-0.305
-0.345
-0.335
-0.335
-0.305
-0.305
-0.32
-0.325
-0.335
-0.33
-0.31
-0.31
-0.32
-0.335
-0.335
-0.325
-0.33
-0.305
-0.315
-0.325
-0.32
-0.315
-0.31
-0.31
-0.32
-0.32
-0.34
-0.32
-0.305
-0.285
-0.285
-0.285
-0.28
-0.235
-0.205
-0.16
-0.115
-0.065
-0.01
0.055
0.095
0.095
0.08
0.03
-0.05
-0.115
-0.15
-0.15
-0.1
-0.01
0.105
0.245
0.38
0.485
0.555
0.605
0.605
0.55
0.46
0.365
0.25
0.13
0.01
-0.07
-0.185
-0.32
-0.435
-0.545
-0.6
-0.625
-0.61
-0.6
-0.565
-0.525
-0.5
-0.46
-0.41
-0.38
-0.385
-0.395
-0.4
-0.4
-0.38
-0.37
-0.38
-0.385
-0.395
-0.385
-0.375
-0.355
-0.375
-0.38
-0.385
-0.37
-0.355
-0.35
-0.345
-0.355
-0.355
-0.345
-0.325
-0.32
-0.32
-0.325
-0.34
-0.32
-0.3
-0.29
-0.29
-0.305
-0.305
-0.28
-0.26
-0.255
-0.255
-0.25
-0.26
-0.24
-0.22
-0.195
-0.2
-0.2
-0.2
-0.18
-0.16
-0.145
-0.135
-0.135
-0.12
-0.105
-0.075
-0.06
-0.055
-0.055
-0.05
-0.02
0.0
0.025
0.025
0.025
0.035
0.04
0.08
0.095
0.085
0.085
0.08
0.085
0.1
0.09
0.075
0.045
0.02
0.005
-0.005
-0.03
-0.05
-0.085
-0.11
-0.11
-0.145
-0.155
-0.175
-0.205
-0.225
-0.225
-0.225
-0.225
-0.23
-0.26
-0.28
-0.26
-0.245
-0.25
-0.265
-0.275
-0.29
-0.295
-0.28
-0.27
-0.285
-0.285
-0.285
-0.28
-0.27
-0.265
-0.29
-0.29
-0.29
-0.295
-0.29
-0.28
-0.285
-0.3
-0.31
-0.29
-0.29
-0.28
-0.295
-0.3
-0.295
-0.29
-0.27
-0.275
-0.28
-0.3
-0.3
-0.29
-0.275
-0.265
-0.28
-0.295
-0.315
-0.29
-0.29
-0.275
-0.285
-0.3
-0.31
-0.305
-0.28
-0.285
-0.285
-0.3
-0.3
-0.295
-0.285
-0.285
-0.29
-0.32
-0.3
-0.3
-0.285
-0.295
-0.305
-0.32
-0.33
-0.32
-0.3
-0.3
-0.3
-0.32
-0.325
-0.32
-0.295
-0.29
-0.285
-0.315
-0.315
-0.33
-0.315
-0.285
-0.285
-0.285
-0.28
-0.28
-0.26
-0.26
-0.26
-0.265
-0.265
-0.25
-0.23
-0.21
-0.22
-0.215
-0.23
-0.235
-0.22
-0.225
-0.23
-0.25
-0.26
-0.255
-0.25
-0.25
-0.265
-0.275
-0.285
-0.3
-0.295
-0.305
-0.295
-0.315
-0.325
-0.33
-0.335
-0.335
-0.33
-0.36
-0.35
-0.34
-0.325
-0.305
-0.315
-0.325
-0.34
-0.35
-0.335
-0.335
-0.34
-0.355
-0.36
-0.355
-0.35
-0.33
-0.34
-0.355
-0.36
-0.35
-0.33
-0.33
-0.34
-0.36
-0.355
-0.335
-0.315
-0.33
-0.34
-0.345
-0.34
-0.32
-0.31
-0.315
-0.32
-0.325
-0.33
-0.325
-0.315
-0.29
-0.26
-0.255
-0.23
-0.17
-0.11
-0.04
0.055
0.12
0.16
0.195
0.21
0.165
0.085
-0.025
-0.11
-0.13
-0.105
-0.015
0.085
0.195
0.345
0.475
0.58
0.655
0.64
0.59
0.475
0.375
0.29
0.195
0.08
-0.025
-0.11
-0.205
-0.285
-0.375
-0.445
-0.5
-0.53
-0.515
-0.485
-0.445
-0.435
-0.425
-0.4
-0.405
-0.37
-0.375
-0.385
-0.4
-0.405
-0.385
-0.375
-0.365
-0.365
-0.38
-0.385
-0.375
-0.355
-0.35
-0.36
-0.37
-0.385
-0.38
-0.36
-0.34
-0.35
-0.355
-0.35
-0.34
-0.32
-0.325
-0.33
-0.33
-0.33
-0.305
-0.295
-0.275
-0.265
-0.28
-0.275
-0.255
-0.235
-0.22
-0.215
-0.22
-0.215
-0.205
-0.16
-0.145
-0.145
-0.14
-0.125
-0.11
-0.07
-0.055
-0.06
-0.045
-0.045
-0.025
0.0
0.02
0.015
0.025
0.03
0.055
0.07
0.105
0.11
0.105
0.105
0.11
0.125
0.13
0.105
0.08
0.065
0.06
0.045
0.03
-0.005
-0.045
-0.075
-0.095
-0.095
-0.1
-0.135
-0.15
-0.17
-0.175
-0.17
-0.18
-0.19
-0.215
-0.225
-0.22
-0.205
-0.2
-0.22
-0.23
-0.24
-0.23
-0.22
-0.215
-0.23
-0.245
-0.245
-0.235
-0.225
-0.21
-0.22
-0.235
-0.255
-0.23
-0.23
-0.215
-0.235
-0.245
-0.235
-0.24
-0.215
-0.205
-0.205
-0.22
-0.225
-0.215
-0.205
-0.2
-0.205
-0.215
-0.22
-0.21
-0.2
-0.19
-0.21
-0.22
-0.22
-0.215
-0.195
-0.195
-0.205
-0.225
-0.23
-0.21
-0.205
-0.195
-0.2
-0.23
-0.23
-0.215
-0.205
-0.2
-0.205
-0.225
-0.23
-0.22
-0.2
-0.21
-0.22
-0.235
-0.225
-0.235
-0.215
-0.215
-0.22
-0.225
-0.235
-0.24
-0.22
-0.225
-0.21
-0.22
-0.235
-0.235
-0.21
-0.21
-0.215
-0.22
-0.225
-0.22
-0.18
-0.165
-0.175
-0.18
-0.185
-0.19
-0.185
-0.155
-0.16
-0.165
-0.16
-0.15
-0.12
-0.12
-0.125
-0.165
-0.165
-0.155
-0.15
-0.15
-0.17
-0.185
-0.2
-0.19
-0.185
-0.185
-0.195
-0.215
-0.235
-0.22
-0.21
-0.205
-0.225
-0.225
-0.25
-0.25
-0.235
-0.25
-0.24
-0.26
-0.27
-0.255
-0.245
-0.245
-0.26
-0.27
-0.275
-0.265
-0.245
-0.245
-0.255
-0.27
-0.275
-0.27
-0.25
-0.24
-0.255
-0.27
-0.285
-0.265
-0.245
-0.255
-0.25
-0.275
-0.27
-0.26
-0.25
-0.245
-0.245
-0.265
-0.27
-0.255
-0.23
-0.225
-0.23
-0.225
-0.21
-0.18
-0.135
-0.1
-0.05
0.005
0.06
0.145
0.2
0.23
0.2
0.14
0.07
0.005
0.005
0.025
0.095
0.185
0.325
0.47
0.605
0.72
0.77
0.765
0.695
0.585
0.495
0.415
0.32
0.205
0.075
-0.035
-0.15
-0.265
-0.36
-0.445
-0.495
-0.515
-0.48
-0.445
-0.41
-0.38
-0.355
-0.34
-0.31
-0.31
-0.31
-0.33
-0.325
-0.32
-0.31
-0.295
-0.305
-0.315
-0.315
-0.31
-0.305
-0.295
-0.285
-0.31
-0.305
-0.29
-0.295
-0.275
-0.275
-0.285
-0.295
-0.275
-0.28
-0.26
-0.275
-0.26
-0.26
-0.255
-0.225
-0.22
-0.22
-0.22
-0.22
-0.205
-0.19
-0.175
-0.17
-0.18
-0.185
-0.165
-0.135
-0.11
-0.11
-0.115
-0.1
-0.085
-0.075
-0.05
-0.04
-0.03
-0.025
-0.015
0.005
0.025
0.04
0.035
0.05
0.06
0.085
0.11
0.115
0.12
0.125
0.145
0.145
0.14
0.115
0.1
0.07
0.05
0.045
0.025
-0.005
-0.05
-0.085
-0.075
-0.075
-0.1
-0.105
-0.15
-0.155
-0.155
-0.145
-0.165
-0.175
-0.185
-0.205
-0.2
-0.2
-0.19
-0.2
-0.21
-0.22
-0.225
-0.2
-0.19
-0.205
-0.2
-0.22
-0.21
-0.205
-0.195
-0.2
-0.225
-0.22
-0.215
-0.205
-0.2
-0.205
-0.225
-0.22
-0.22
-0.2
-0.19
-0.2
-0.23
-0.225
-0.215
-0.215
-0.2
-0.215
-0.215
-0.235
-0.23
-0.225
-0.2
-0.205
-0.22
-0.23
-0.245
-0.205
-0.2
-0.215
-0.23
-0.235
-0.225
-0.215
-0.21
-0.215
-0.24
-0.235
-0.25
-0.22
-0.205
-0.23
-0.24
-0.26
-0.24
-0.23
-0.235
-0.25
-0.245
-0.245
-0.245
-0.225
-0.225
-0.235
-0.25
-0.265
-0.25
-0.23
-0.24
-0.235
-0.25
-0.25
-0.24
-0.225
-0.2
-0.215
-0.21
-0.225
-0.205
-0.19
-0.19
-0.185
-0.2
-0.215
-0.18
-0.16
-0.14
-0.16
-0.16
-0.16
-0.16
-0.17
-0.17
-0.175
-0.185
-0.2
-0.195
-0.19
-0.195
-0.2
-0.215
-0.23
-0.235
-0.225
-0.225
-0.23
-0.25
-0.27
-0.27
-0.245
-0.235
-0.245
-0.265
-0.285
-0.28
-0.285
-0.29
-0.275
-0.285
-0.28
-0.275
-0.275
-0.28
-0.28
-0.305
-0.32
-0.305
-0.29
-0.285
-0.29
-0.305
-0.315
-0.32
-0.295
-0.285
-0.29
-0.31
-0.32
-0.315
-0.3
-0.29
-0.3
-0.31
-0.32
-0.31
-0.285
-0.285
-0.285
-0.31
-0.315
-0.325
-0.295
-0.285
-0.29
-0.305
-0.29
-0.265
-0.245
-0.215
-0.17
-0.15
-0.105
-0.055
0.025
0.09
0.11
0.13
0.12
0.085
0.03
-0.035
-0.07
-0.07
-0.015
0.1
0.225
0.365
0.475
0.565
0.635
0.67
0.645
0.58
0.47
0.36
0.27
0.185
0.115
0.0
-0.13
-0.26
-0.385
-0.465
-0.505
-0.545
-0.55
-0.585
-0.56
-0.515
-0.45
-0.41
-0.385
-0.38
-0.385
-0.375
-0.36
-0.35
-0.35
-0.37
-0.38
-0.36
-0.355
-0.335
-0.335
-0.355
-0.35
-0.345
-0.32
-0.31
-0.32
-0.32
-0.33
-0.32
-0.305
-0.305
-0.315
-0.325
-0.325
-0.31
-0.31
-0.29
-0.29
-0.29
-0.305
-0.28
-0.29
-0.27
-0.295
-0.295
-0.285
-0.275
-0.25
-0.235
-0.23
-0.24
-0.245
-0.225
-0.22
-0.19
-0.195
-0.195
-0.185
-0.185
-0.17
-0.15
-0.12
-0.12
-0.14
-0.11
-0.07
-0.055
-0.04
-0.04
-0.035
-0.035
-0.005
0.0
0.025
0.03
0.03
0.05
0.08
0.085
0.095
0.085
0.075
0.095
0.115
0.11
0.1
0.085
0.055
0.055
0.05
0.025
0.005
-0.04
-0.055
-0.08
-0.075
-0.095
-0.12
-0.13
-0.15
-0.155
-0.155
-0.17
-0.19
-0.195
-0.22
-0.22
-0.205
-0.2
-0.215
-0.225
-0.245
-0.235
-0.225
-0.215
-0.235
-0.24
-0.245
-0.26
-0.23
-0.23
-0.25
-0.255
-0.265
-0.26
-0.245
-0.235
-0.245
-0.26
-0.26
-0.245
-0.25
-0.24
-0.245
-0.25
-0.27
-0.27
-0.25
-0.23
-0.235
-0.25
-0.26
-0.25
-0.235
-0.235
-0.235
-0.245
-0.25
-0.25
-0.23
-0.23
-0.23
-0.25
-0.255
-0.26
-0.245
-0.24
-0.24
-0.265
-0.27
-0.255
-0.245
-0.245
-0.255
-0.265
-0.28
-0.27
-0.255
-0.255
-0.24
-0.26
-0.28
-0.26
-0.255
-0.255
-0.255
-0.27
-0.275
-0.29
-0.285
-0.275
-0.26
-0.28
-0.285
-0.29
-0.28
-0.275
-0.27
-0.28
-0.295
-0.285
-0.28
-0.265
-0.28
-0.295
-0.29
-0.295
-0.275
-0.27
-0.27
-0.28
-0.3
-0.285
-0.255
-0.225
-0.235
-0.24
-0.25
-0.245
-0.235
-0.215
-0.21
-0.22
-0.215
-0.21
-0.21
-0.195
-0.2
-0.195
-0.215
-0.21
-0.23
-0.215
-0.215
-0.25
-0.26
-0.27
-0.25
-0.23
-0.245
-0.275
-0.285
-0.29
-0.255
-0.255
-0.26
-0.28
-0.305
-0.3
-0.275
-0.275
-0.285
-0.295
-0.32
-0.325
-0.315
-0.31
-0.305
-0.33
-0.33
-0.315
-0.315
-0.31
-0.32
-0.335
-0.34
-0.345
-0.325
-0.325
-0.325
-0.34
-0.345
-0.345
-0.325
-0.32
-0.325
-0.345
-0.355
-0.355
-0.335
-0.335
-0.34
-0.34
-0.35
-0.355
-0.345
-0.32
-0.335
-0.335
-0.35
-0.345
-0.33
-0.315
-0.315
-0.325
-0.345
-0.335
-0.31
-0.295
-0.27
-0.275
-0.26
-0.22
-0.185
-0.115
-0.065
-0.02
0.01
0.055
0.075
0.085
0.03
-0.05
-0.145
-0.175
-0.14
-0.09
0.015
0.12
0.245
0.37
0.49
0.59
0.63
0.61
0.54
0.44
0.355
0.26
0.18
0.06
-0.06
-0.155
-0.285
-0.385
-0.48
-0.555
-0.62
-0.625
-0.625
-0.585
-0.55
-0.53
-0.495
-0.45
-0.43
-0.41
-0.395
-0.4
-0.415
-0.405
-0.38
-0.37
-0.375
-0.375
-0.385
-0.385
-0.375
-0.365
-0.355
-0.38
-0.38
-0.375
-0.37
-0.34
-0.34
-0.355
-0.365
-0.355
-0.355
-0.32
-0.33
-0.345
-0.36
-0.345
-0.33
-0.31
-0.3
-0.315
-0.32
-0.31
-0.29
-0.265
-0.275
-0.275
-0.27
-0.26
-0.24
-0.225
-0.225
-0.22
-0.23
-0.21
-0.185
-0.16
-0.17
-0.165
-0.17
-0.15
-0.11
-0.095
-0.085
-0.085
-0.095
-0.08
-0.06
-0.025
-0.03
-0.03
-0.03
-0.005
0.015
0.035
0.03
0.03
0.035
0.055
0.07
0.095
0.1
0.08
0.075
0.06
0.06
0.06
0.045
0.005
-0.035
-0.05
-0.055
-0.06
-0.1
-0.125
-0.14
-0.16
-0.16
-0.16
-0.19
-0.21
-0.23
-0.23
-0.23
-0.225
-0.235
-0.255
-0.265
-0.265
-0.245
-0.24
-0.255
-0.26
-0.28
-0.28
-0.275
-0.265
-0.255
-0.28
-0.29
-0.28
-0.285
-0.28
-0.285
-0.28
-0.295
-0.29
-0.28
-0.27
-0.265
-0.285
-0.285
-0.295
-0.28
-0.275
-0.27
-0.295
-0.305
-0.295
-0.285
-0.26
-0.275
-0.285
-0.295
-0.29
-0.275
-0.265
-0.29
-0.31
-0.315
-0.305
-0.29
-0.28
-0.28
-0.275
-0.3
-0.295
-0.29
-0.27
-0.285
-0.305
-0.31
-0.3
-0.295
-0.28
-0.285
-0.3
-0.31
-0.32
-0.305
-0.285
-0.3
-0.32
-0.33
-0.32
-0.305
-0.295
-0.305
-0.315
-0.325
-0.32
-0.315
-0.305
-0.305
-0.32
-0.335
-0.32
-0.305
-0.29
-0.305
-0.33
-0.32
-0.315
-0.305
-0.285
-0.29
-0.29
-0.29
-0.295
-0.265
-0.25
-0.25
-0.265
-0.275
-0.255
-0.24
-0.23
-0.225
-0.24
-0.235
-0.22
-0.215
-0.21
-0.235
-0.245
-0.255
-0.245
-0.245
-0.235
-0.25
-0.285
-0.285
-0.285
-0.275
-0.275
-0.285
-0.305
-0.325
-0.32
-0.315
-0.305
-0.305
-0.32
-0.33
-0.34
-0.335
-0.34
-0.335
-0.35
-0.36
-0.345
-0.335
-0.345
-0.345
-0.365
-0.38
-0.365
-0.345
-0.355
-0.345
-0.36
-0.37
-0.36
-0.35
-0.335
-0.35
-0.36
-0.375
-0.37
-0.35
-0.345
-0.345
-0.355
-0.37
-0.365
-0.36
-0.365
-0.35
-0.35
-0.37
-0.36
-0.345
-0.345
-0.345
-0.345
-0.35
-0.335
-0.325
-0.305
-0.295
-0.28
-0.27
-0.22
-0.16
-0.08
-0.025
0.0
0.03
0.05
0.06
0.025
-0.06
-0.145
-0.2
-0.165
-0.09
0.005
0.135
0.235
0.34
0.455
0.545
0.585
0.575
0.515
0.41
0.31
0.23
0.17
0.075
-0.03
-0.155
-0.26
-0.36
-0.45
-0.525
-0.6
-0.635
-0.64
-0.63
-0.61
-0.58
-0.545
-0.51
-0.47
-0.44
-0.42
-0.425
-0.41
-0.43
-0.435
-0.415
-0.385
-0.395
-0.405
-0.405
-0.4
-0.385
-0.36
-0.375
-0.38
-0.395
-0.39
-0.365
-0.355
-0.37
-0.375
-0.365
-0.365
-0.355
-0.34
-0.335
-0.33
-0.36
-0.35
-0.325
-0.31
-0.32
-0.315
-0.325
-0.305
-0.29
-0.27
-0.275
-0.285
-0.295
-0.275
-0.265
-0.23
-0.235
-0.235
-0.25
-0.23
-0.215
-0.185
-0.18
-0.185
-0.18
-0.165
-0.14
-0.11
-0.1
-0.115
-0.12
-0.095
-0.065
-0.045
-0.05
-0.06
-0.055
-0.03
-0.02
0.01
0.02
0.015
0.02
0.045
0.055
0.075
0.07
0.06
0.065
0.07
0.085
0.09
0.065
0.05
0.025
0.01
-0.005
-0.015
-0.035
-0.085
-0.11
-0.135
-0.14
-0.145
-0.155
-0.185
-0.215
-0.245
-0.215
-0.21
-0.23
-0.255
-0.265
-0.265
-0.255
-0.255
-0.28
-0.28
-0.285
-0.285
-0.28
-0.275
-0.285
-0.285
-0.295
-0.3
-0.285
-0.285
-0.285
-0.285
-0.295
-0.29
-0.285
-0.28
-0.28
-0.305
-0.305
-0.32
-0.28
-0.265
-0.28
-0.29
-0.295
-0.295
-0.28
-0.27
-0.29
-0.295
-0.31
-0.31
-0.285
-0.28
-0.285
-0.29
-0.31
-0.295
-0.295
-0.28
-0.285
-0.31
-0.32
-0.325
-0.3
-0.295
-0.295
-0.32
-0.32
-0.315
-0.31
-0.295
-0.31
-0.32
-0.33
-0.33
-0.31
-0.305
-0.33
-0.34
-0.335
-0.335
-0.325
-0.32
-0.315
-0.35
-0.35
-0.345
-0.34
-0.315
-0.315
-0.325
-0.335
-0.33
-0.32
-0.315
-0.32
-0.335
-0.345
-0.34
-0.32
-0.31
-0.305
-0.31
-0.31
-0.31
-0.29
-0.28
-0.28
-0.29
-0.305
-0.285
-0.275
-0.25
-0.235
-0.24
-0.25
-0.255
-0.24
-0.225
-0.24
-0.265
-0.275
-0.28
-0.265
-0.275
-0.285
-0.3
-0.315
-0.32
-0.305
-0.295
-0.305
-0.32
-0.345
-0.345
-0.325
-0.32
-0.335
-0.365
-0.375
-0.38
-0.355
-0.33
-0.335
-0.35
-0.375
-0.375
-0.38
-0.355
-0.365
-0.38
-0.385
-0.38
-0.37
-0.36
-0.36
-0.37
-0.385
-0.385
-0.36
-0.36
-0.37
-0.375
-0.395
-0.375
-0.375
-0.355
-0.365
-0.38
-0.395
-0.39
-0.365
-0.345
-0.36
-0.36
-0.355
-0.335
-0.3
-0.255
-0.19
-0.13
-0.07
0.005
0.045
0.035
-0.025
-0.13
-0.245
-0.245
-0.17
-0.035
0.11
0.25
0.38
0.49
0.57
0.595
0.55
0.43
0.31
0.205
0.125
0.035
-0.075
-0.205
-0.34
-0.46
-0.545
-0.585
-0.635
-0.665
-0.69
-0.67
-0.62
-0.58
-0.535
-0.515
-0.49
-0.46
-0.44
-0.42
-0.43
-0.435
-0.44
-0.43
-0.42
-0.41
-0.41
-0.425
-0.425
-0.415
-0.4
-0.395
-0.4
-0.42
-0.42
-0.41
-0.39
-0.38
-0.39
-0.39
-0.395
-0.405
-0.38
-0.365
-0.37
-0.37
-0.37
-0.36
-0.34
-0.33
-0.33
-0.34
-0.33
-0.32
-0.305
-0.295
-0.285
-0.31
-0.295
-0.285
-0.295
-0.255
-0.245
-0.25
-0.235
-0.215
-0.2
-0.175
-0.18
-0.17
-0.16
-0.145
-0.115
-0.1
-0.1
-0.105
-0.09
-0.07
-0.05
-0.035
-0.02
-0.015
-0.025
-0.02
0.01
0.035
0.025
0.02
0.02
0.035
0.045
0.05
0.055
0.025
0.015
0.005
0.01
-0.005
-0.03
-0.075
-0.1
-0.13
-0.13
-0.135
-0.175
-0.21
-0.24
-0.25
-0.245
-0.24
-0.27
-0.29
-0.31
-0.315
-0.305
-0.3
-0.315
-0.325
-0.335
-0.34
-0.335
-0.325
-0.32
-0.34
-0.355
-0.35
-0.345
-0.33
-0.345
-0.34
-0.36
-0.37
-0.355
-0.345
-0.36
-0.365
-0.38
-0.37
-0.365
-0.345
-0.36
-0.365
-0.38
-0.375
-0.36
-0.345
-0.355
-0.37
-0.38
-0.37
-0.365
-0.355
-0.35
-0.36
-0.37
-0.375
-0.365
-0.365
-0.37
-0.385
-0.38
-0.375
-0.36
-0.355
-0.36
-0.37
-0.39
-0.385
-0.37
-0.355
-0.37
-0.375
-0.38
-0.38
-0.37
-0.36
-0.36
-0.385
-0.375
-0.39
-0.38
-0.365
-0.38
-0.39
-0.405
-0.4
-0.38
-0.365
-0.365
-0.39
-0.395
-0.39
-0.38
-0.375
-0.365
-0.37
-0.385
-0.385
-0.365
-0.35
-0.36
-0.365
-0.36
-0.36
-0.325
-0.32
-0.325
-0.34
-0.34
-0.34
-0.335
-0.305
-0.31
-0.315
-0.31
-0.3
-0.29
-0.28
-0.3
-0.315
-0.33
-0.335
-0.335
-0.325
-0.33
-0.35
-0.365
-0.37
-0.355
-0.365
-0.375
-0.385
-0.38
-0.39
-0.395
-0.375
-0.385
-0.4
-0.425
-0.42
-0.425
-0.415
-0.41
-0.42
-0.425
-0.42
-0.41
-0.395
-0.405
-0.415
-0.435
-0.425
-0.405
-0.4
-0.405
-0.41
-0.425
-0.43
-0.43
-0.41
-0.41
-0.425
-0.44
-0.425
-0.415
-0.395
-0.415
-0.425
-0.43
-0.43
-0.405
-0.4
-0.4
-0.405
-0.415
-0.415
-0.4
-0.39
-0.39
-0.395
-0.395
-0.375
-0.34
-0.305
-0.285
-0.28
-0.235
-0.17
-0.07
0.02
0.095
0.125
0.14
0.125
0.065
0.01
-0.095
-0.16
-0.16
-0.09
0.03
0.19
0.325
0.45
0.535
0.6
0.63
0.58
0.485
0.375
0.28
0.175
0.095
0.0
-0.085
-0.205
-0.325
-0.425
-0.485
-0.54
-0.575
-0.62
-0.61
-0.585
-0.555
-0.52
-0.5
-0.51
-0.505
-0.485
-0.47
-0.45
-0.47
-0.48
-0.49
-0.475
-0.465
-0.47
-0.46
-0.475
-0.475
-0.48
-0.46
-0.445
-0.455
-0.475
-0.46
-0.455
-0.445
-0.435
-0.44
-0.445
-0.46
-0.44
-0.435
-0.425
-0.43
-0.415
-0.415
-0.4
-0.38
-0.37
-0.375
-0.37
-0.36
-0.375
-0.335
-0.315
-0.315
-0.305
-0.325
-0.295
-0.26
-0.25
-0.235
-0.24
-0.235
-0.215
-0.185
-0.175
-0.145
-0.14
-0.14
-0.12
-0.09
-0.075
-0.07
-0.075
-0.07
-0.045
-0.015
0.01
0.01
0.01
0.035
0.045
0.065
0.095
0.08
0.055
0.055
0.04
0.035
0.035
0.02
-0.02
-0.045
-0.075
-0.085
-0.105
-0.12
-0.16
-0.185
-0.2
-0.19
-0.185
-0.21
-0.22
-0.245
-0.25
-0.255
-0.235
-0.245
-0.255
-0.27
-0.26
-0.255
-0.235
-0.25
-0.26
-0.27
-0.275
-0.25
-0.25
-0.255
-0.26
-0.27
-0.265
-0.26
-0.245
-0.245
-0.255
-0.27
-0.27
-0.25
-0.25
-0.255
-0.255
-0.275
-0.265
-0.24
-0.23
-0.23
-0.255
-0.25
-0.245
-0.24
-0.22
-0.235
-0.26
-0.26
-0.25
-0.24
-0.225
-0.23
-0.24
-0.255
-0.255
-0.25
-0.24
-0.235
-0.24
-0.265
-0.245
-0.25
-0.23
-0.23
-0.245
-0.27
-0.26
-0.25
-0.23
-0.235
-0.26
-0.275
-0.265
-0.25
-0.245
-0.25
-0.26
-0.265
-0.28
-0.26
-0.245
-0.24
-0.26
-0.275
-0.27
-0.255
-0.25
-0.25
-0.265
-0.285
-0.285
-0.265
-0.255
-0.255
-0.255
-0.265
-0.25
-0.235
-0.21
-0.215
-0.225
-0.24
-0.225
-0.225
-0.195
-0.2
-0.2
-0.2
-0.19
-0.175
-0.18
-0.185
-0.195
-0.23
-0.215
-0.205
-0.195
-0.195
-0.23
-0.24
-0.265
-0.23
-0.245
-0.25
-0.245
-0.26
-0.26
-0.26
-0.245
-0.265
-0.28
-0.28
-0.295
-0.28
-0.28
-0.295
-0.305
-0.31
-0.295
-0.285
-0.295
-0.31
-0.31
-0.315
-0.315
-0.31
-0.285
-0.295
-0.31
-0.33
-0.315
-0.31
-0.295
-0.31
-0.32
-0.33
-0.32
-0.315
-0.3
-0.3
-0.32
-0.32
-0.31
-0.3
-0.285
-0.285
-0.295
-0.315
-0.305
-0.29
-0.275
-0.275
-0.29
-0.275
-0.245
-0.22
-0.175
-0.155
-0.095
-0.015
0.06
0.15
0.215
0.255
0.24
0.195
0.125
0.075
0.05
0.06
0.12
0.225
0.355
0.5
0.635
0.75
0.82
0.825
0.79
0.7
0.59
0.495
0.375
0.245
0.135
0.03
-0.105
-0.235
-0.345
-0.44
-0.5
-0.515
-0.51
-0.495
-0.48
-0.455
-0.42
-0.385
-0.375
-0.375
-0.38
-0.4
-0.38
-0.38
-0.365
-0.37
-0.375
-0.38
-0.375
-0.355
-0.35
-0.35
-0.37
-0.375
-0.38
-0.365
-0.34
-0.355
-0.37
-0.38
-0.385
-0.35
-0.35
-0.345
-0.365
-0.37
-0.36
-0.325
-0.32
-0.305
-0.315
-0.335
-0.32
-0.29
-0.27
-0.27
-0.28
-0.29
-0.275
-0.26
-0.24
-0.23
-0.245
-0.245
-0.235
-0.195
-0.175
-0.175
-0.17
-0.17
-0.16
-0.14
-0.105
-0.095
-0.1
-0.1
-0.085
-0.065
-0.03
-0.02
-0.025
-0.02
0.005
0.035
0.055
0.065
0.065
0.04
0.03
0.02
0.005
0.0
-0.04
-0.06
-0.07
-0.09
-0.1
-0.125
-0.155
-0.175
-0.18
-0.195
-0.185
-0.215
-0.22
-0.245
-0.255
-0.23
-0.23
-0.23
-0.26
-0.275
-0.275
-0.265
-0.25
-0.255
-0.28
-0.29
-0.285
-0.29
-0.27
-0.26
-0.29
-0.31
-0.31
-0.29
-0.27
-0.275
-0.275
-0.305
-0.29
-0.275
-0.27
-0.26
-0.275
-0.285
-0.29
-0.285
-0.265
-0.265
-0.275
-0.28
-0.285
-0.275
-0.265
-0.265
-0.27
-0.285
-0.28
-0.28
-0.26
-0.265
-0.285
-0.295
-0.295
-0.285
-0.275
-0.275
-0.28
-0.295
-0.295
-0.28
-0.275
-0.28
-0.295
-0.305
-0.3
-0.29
-0.275
-0.28
-0.3
-0.315
-0.305
-0.29
-0.29
-0.29
-0.31
-0.305
-0.31
-0.295
-0.28
-0.295
-0.295
-0.3
-0.305
-0.305
-0.305
-0.29
-0.3
-0.3
-0.31
-0.285
-0.285
-0.28
-0.3
-0.29
-0.295
-0.275
-0.255
-0.25
-0.24
-0.255
-0.26
-0.245
-0.225
-0.24
-0.24
-0.245
-0.235
-0.21
-0.18
-0.18
-0.2
-0.215
-0.225
-0.22
-0.21
-0.23
-0.225
-0.25
-0.265
-0.255
-0.24
-0.255
-0.265
-0.29
-0.29
-0.295
-0.28
-0.285
-0.295
-0.31
-0.305
-0.3
-0.29
-0.305
-0.305
-0.335
-0.33
-0.33
-0.315
-0.305
-0.32
-0.34
-0.34
-0.335
-0.32
-0.32
-0.33
-0.345
-0.35
-0.33
-0.315
-0.335
-0.34
-0.38
-0.355
-0.345
-0.335
-0.34
-0.335
-0.345
-0.35
-0.34
-0.32
-0.33
-0.33
-0.34
-0.35
-0.325
-0.305
-0.31
-0.325
-0.32
-0.325
-0.295
-0.275
-0.24
-0.245
-0.215
-0.195
-0.125
-0.045
0.025
0.095
0.125
0.165
0.18
0.17
0.1
0.015
-0.045
-0.04
0.035
0.145
0.295
0.415
0.535
0.645
0.725
0.755
0.685
0.57
0.445
0.345
0.27
0.155
0.04
-0.11
-0.265
-0.38
-0.465
-0.51
-0.55
-0.585
-0.595
-0.555
-0.515
-0.47
-0.435
-0.425
-0.425
-0.405
-0.39
-0.39
-0.375
-0.39
-0.4
-0.4
-0.385
-0.36
-0.365
-0.375
-0.38
-0.395
-0.375
-0.375
-0.385
-0.365
-0.38
-0.38
-0.365
-0.35
-0.345
-0.355
-0.35
-0.35
-0.335
-0.315
-0.32
-0.315
-0.33
-0.325
-0.31
-0.28
-0.28
-0.295
-0.285
-0.29
-0.26
-0.245
-0.24
-0.23
-0.25
-0.235
-0.21
-0.195
-0.185
-0.17
-0.165
-0.16
-0.14
-0.1
-0.095
-0.1
-0.095
-0.085
-0.065
-0.035
-0.01
-0.015
-0.02
0.005
0.035
0.06
0.06
0.05
0.04
0.035
0.045
0.045
0.03
0.01
-0.025
-0.055
-0.065
-0.075
-0.105
-0.135
-0.175
-0.185
-0.185
-0.19
-0.2
-0.225
-0.24
-0.245
-0.245
-0.25
-0.245
-0.255
-0.275
-0.275
-0.27
-0.27
-0.275
-0.285
-0.3
-0.3
-0.29
-0.27
-0.28
-0.29
-0.31
-0.31
-0.305
-0.275
-0.265
-0.275
-0.31
-0.3
-0.295
-0.285
-0.27
-0.29
-0.305
-0.3
-0.29
-0.275
-0.3
-0.315
-0.305
-0.3
-0.285
-0.28
-0.29
-0.295
-0.305
-0.295
-0.29
-0.275
-0.29
-0.305
-0.32
-0.33
-0.31
-0.275
-0.29
-0.3
-0.31
-0.31
-0.305
-0.3
-0.3
-0.3
-0.315
-0.33
-0.305
-0.29
-0.29
-0.305
-0.32
-0.31
-0.31
-0.3
-0.3
-0.315
-0.325
-0.31
-0.315
-0.3
-0.305
-0.32
-0.345
-0.33
-0.32
-0.29
-0.29
-0.31
-0.32
-0.32
-0.32
-0.295
-0.3
-0.29
-0.3
-0.29
-0.285
-0.255
-0.24
-0.265
-0.275
-0.275
-0.26
-0.245
-0.23
-0.235
-0.24
-0.225
-0.22
-0.21
-0.205
-0.225
-0.24
-0.255
-0.245
-0.225
-0.26
-0.265
-0.27
-0.28
-0.28
-0.285
-0.27
-0.285
-0.305
-0.305
-0.29
-0.285
-0.295
-0.3
-0.32
-0.32
-0.31
-0.305
-0.315
-0.34
-0.355
-0.355
-0.35
-0.32
-0.32
-0.33
-0.35
-0.345
-0.355
-0.34
-0.335
-0.335
-0.35
-0.35
-0.34
-0.335
-0.33
-0.335
-0.35
-0.36
-0.345
-0.34
-0.335
-0.35
-0.35
-0.355
-0.35
-0.325
-0.345
-0.35
-0.365
-0.355
-0.325
-0.31
-0.325
-0.34
-0.33
-0.33
-0.31
-0.295
-0.265
-0.265
-0.245
-0.225
-0.17
-0.1
-0.035
0.03
0.075
0.115
0.165
0.175
0.16
0.09
0.01
-0.05
-0.05
0.005
0.07
0.17
0.29
0.405
0.54
0.645
0.705
0.705
0.645
0.545
0.455
0.375
0.305
0.19
0.075
-0.03
-0.13
-0.245
-0.355
-0.455
-0.52
-0.565
-0.58
-0.565
-0.53
-0.52
-0.49
-0.46
-0.41
-0.385
-0.375
-0.38
-0.4
-0.385
-0.38
-0.365
-0.355
-0.36
-0.38
-0.37
-0.375
-0.34
-0.35
-0.37
-0.365
-0.36
-0.365
-0.34
-0.33
-0.345
-0.36
-0.345
-0.325
-0.31
-0.305
-0.315
-0.33
-0.315
-0.31
-0.285
-0.285
-0.29
-0.295
-0.295
-0.265
-0.26
-0.26
-0.275
-0.27
-0.245
-0.235
-0.21
-0.205
-0.205
-0.21
-0.2
-0.175
-0.155
-0.155
-0.165
-0.16
-0.155
-0.13
-0.08
-0.08
-0.085
-0.08
-0.065
-0.06
-0.015
-0.01
-0.005
-0.01
0.005
0.005
0.03
0.065
0.075
0.065
0.075
0.095
0.115
0.11
0.105
0.095
0.07
0.065
0.045
0.04
0.01
-0.03
-0.05
-0.055
-0.08
-0.075
-0.13
-0.145
-0.165
-0.17
-0.145
-0.17
-0.195
-0.205
-0.21
-0.21
-0.205
-0.205
-0.21
-0.225
-0.235
-0.23
-0.215
-0.23
-0.23
-0.245
-0.25
-0.24
-0.23
-0.23
-0.24
-0.26
-0.255
-0.245
-0.23
-0.23
-0.24
-0.26
-0.275
-0.25
-0.23
-0.23
-0.235
-0.255
-0.265
-0.265
-0.24
-0.24
-0.255
-0.25
-0.24
-0.24
-0.23
-0.235
-0.23
-0.24
-0.245
-0.25
-0.23
-0.22
-0.235
-0.245
-0.265
-0.25
-0.215
-0.23
-0.235
-0.245
-0.245
-0.25
-0.225
-0.23
-0.25
-0.26
-0.255
-0.27
-0.24
-0.245
-0.25
-0.285
-0.265
-0.255
-0.235
-0.24
-0.245
-0.255
-0.265
-0.255
-0.245
-0.26
-0.255
-0.27
-0.27
-0.255
-0.24
-0.24
-0.25
-0.275
-0.275
-0.25
-0.24
-0.245
-0.265
-0.27
-0.275
-0.255
-0.24
-0.225
-0.245
-0.235
-0.235
-0.215
-0.18
-0.195
-0.21
-0.215
-0.215
-0.195
-0.175
-0.165
-0.175
-0.155
-0.17
-0.155
-0.135
-0.135
-0.155
-0.155
-0.17
-0.16
-0.155
-0.155
-0.165
-0.195
-0.205
-0.19
-0.195
-0.205
-0.21
-0.23
-0.235
-0.22
-0.205
-0.215
-0.23
-0.24
-0.245
-0.24
-0.24
-0.215
-0.26
-0.28
-0.285
-0.26
-0.24
-0.235
-0.255
-0.255
-0.26
-0.265
-0.265
-0.255
-0.265
-0.275
-0.28
-0.275
-0.25
-0.26
-0.275
-0.285
-0.285
-0.275
-0.255
-0.26
-0.265
-0.285
-0.285
-0.27
-0.25
-0.255
-0.27
-0.285
-0.275
-0.27
-0.255
-0.27
-0.26
-0.275
-0.275
-0.265
-0.235
-0.225
-0.215
-0.21
-0.19
-0.155
-0.11
-0.05
-0.005
0.05
0.115
0.195
0.245
0.26
0.22
0.17
0.085
0.02
0.005
0.05
0.11
0.22
0.335
0.49
0.625
0.705
0.765
0.765
0.705
0.61
0.52
0.4
0.315
0.19
0.065
-0.045
-0.15
-0.28
-0.38
-0.455
-0.525
-0.545
-0.525
-0.51
-0.495
-0.47
-0.465
-0.415
-0.375
-0.36
-0.355
-0.365
-0.355
-0.34
-0.32
-0.33
-0.33
-0.345
-0.35
-0.33
-0.315
-0.33
-0.325
-0.33
-0.33
-0.315
-0.305
-0.31
-0.32
-0.325
-0.33
-0.31
-0.305
-0.305
-0.295
-0.31
-0.295
-0.285
-0.265
-0.26
-0.265
-0.28
-0.27
-0.255
-0.245
-0.24
-0.23
-0.245
-0.24
-0.215
-0.185
-0.185
-0.185
-0.19
-0.195
-0.17
-0.145
-0.13
-0.115
-0.13
-0.105
-0.095
-0.07
-0.055
-0.05
-0.055
-0.055
-0.03
0.005
0.03
0.02
0.01
0.015
0.02
0.055
0.07
0.08
0.075
0.09
0.105
0.135
0.135
0.115
0.095
0.095
0.11
0.105
0.085
0.065
0.025
-0.01
-0.015
-0.025
-0.055
-0.09
-0.115
-0.125
-0.145
-0.15
-0.165
-0.18
-0.21
-0.22
-0.21
-0.2
-0.21
-0.22
-0.235
-0.245
-0.26
-0.23
-0.24
-0.255
-0.26
-0.27
-0.26
-0.24
-0.24
-0.25
-0.27
-0.265
-0.255
-0.24
-0.24
-0.25
-0.26
-0.265
-0.265
-0.24
-0.245
-0.255
-0.25
-0.25
-0.25
-0.235
-0.25
-0.255
-0.265
-0.265
-0.25
-0.24
-0.24
-0.255
-0.27
-0.275
-0.27
-0.245
-0.26
-0.27
-0.28
-0.27
-0.255
-0.25
-0.255
-0.265
-0.295
-0.3
-0.265
-0.255
-0.26
-0.275
-0.285
-0.29
-0.265
-0.255
-0.26
-0.275
-0.295
-0.28
-0.275
-0.255
-0.255
-0.275
-0.275
-0.29
-0.265
-0.265
-0.26
-0.27
-0.285
-0.29
-0.275
-0.265
-0.27
-0.275
-0.295
-0.3
-0.29
-0.26
-0.255
-0.265
-0.285
-0.285
-0.255
-0.22
-0.22
-0.245
-0.245
-0.235
-0.24
-0.22
-0.215
-0.21
-0.215
-0.215
-0.2
-0.185
-0.185
-0.185
-0.195
-0.21
-0.215
-0.2
-0.205
-0.21
-0.23
-0.235
-0.23
-0.21
-0.225
-0.23
-0.265
-0.255
-0.265
-0.265
-0.27
-0.26
-0.29
-0.31
-0.3
-0.28
-0.3
-0.31
-0.325
-0.33
-0.33
-0.29
-0.275
-0.28
-0.32
-0.33
-0.325
-0.305
-0.295
-0.3
-0.315
-0.32
-0.305
-0.3
-0.295
-0.33
-0.35
-0.32
-0.315
-0.29
-0.295
-0.305
-0.315
-0.315
-0.31
-0.285
-0.295
-0.305
-0.315
-0.305
-0.295
-0.275
-0.285
-0.29
-0.29
-0.29
-0.28
-0.245
-0.21
-0.2
-0.18
-0.135
-0.06
0.03
0.11
0.185
0.23
0.275
0.29
0.265
0.19
0.1
0.01
-0.03
0.03
0.115
0.225
0.35
0.45
0.56
0.65
0.725
0.72
0.67
0.575
0.475
0.405
0.34
0.26
0.145
0.035
-0.04
-0.12
-0.2
-0.285
-0.38
-0.435
-0.48
-0.47
-0.45
-0.425
-0.42
-0.405
-0.38
-0.36
-0.34
-0.35
-0.345
-0.36
-0.355
-0.36
-0.335
-0.33
-0.33
-0.35
-0.35
-0.335
-0.335
-0.33
-0.33
-0.36
-0.36
-0.335
-0.315
-0.31
-0.33
-0.34
-0.34
-0.31
-0.305
-0.31
-0.3
-0.31
-0.32
-0.31
-0.275
-0.28
-0.275
-0.285
-0.28
-0.26
-0.235
-0.23
-0.235
-0.23
-0.22
-0.215
-0.185
-0.175
-0.175
-0.19
-0.18
-0.14
-0.115
-0.125
-0.115
-0.105
-0.105
-0.105
-0.06
-0.045
-0.04
-0.035
-0.035
0.0
0.025
0.025
0.035
0.02
0.05
0.065
0.1
0.115
0.11
0.105
0.12
0.13
0.145
0.15
0.145
0.135
0.115
0.105
0.11
0.09
0.045
0.01
-0.01
-0.025
-0.02
-0.045
-0.075
-0.1
-0.115
-0.12
-0.11
-0.12
-0.135
-0.145
-0.17
-0.17
-0.16
-0.165
-0.185
-0.185
-0.195
-0.195
-0.175
-0.18
-0.19
-0.195
-0.21
-0.195
-0.18
-0.175
-0.18
-0.205
-0.21
-0.19
-0.17
-0.17
-0.195
-0.2
-0.2
-0.18
-0.175
-0.165
-0.175
-0.19
-0.205
-0.175
-0.155
-0.155
-0.17
-0.185
-0.175
-0.165
-0.145
-0.15
-0.16
-0.16
-0.17
-0.155
-0.14
-0.145
-0.165
-0.18
-0.175
-0.15
-0.14
-0.145
-0.15
-0.165
-0.165
-0.17
-0.14
-0.135
-0.155
-0.165
-0.165
-0.16
-0.155
-0.155
-0.15
-0.16
-0.175
-0.155
-0.135
-0.135
-0.145
-0.17
-0.17
-0.16
-0.15
-0.155
-0.155
-0.175
-0.18
-0.165
-0.16
-0.17
-0.2
-0.185
-0.18
-0.185
-0.16
-0.165
-0.18
-0.185
-0.19
-0.175
-0.165
-0.16
-0.155
-0.18
-0.15
-0.125
-0.11
-0.105
-0.12
-0.125
-0.115
-0.095
-0.09
-0.07
-0.08
-0.095
-0.08
-0.065
-0.055
-0.05
-0.07
-0.085
-0.1
-0.11
-0.065
-0.08
-0.095
-0.115
-0.12
-0.11
-0.105
-0.12
-0.13
-0.135
-0.15
-0.155
-0.135
-0.135
-0.16
-0.16
-0.165
-0.16
-0.165
-0.165
-0.175
-0.195
-0.17
-0.165
-0.15
-0.16
-0.19
-0.175
-0.185
-0.175
-0.165
-0.17
-0.17
-0.18
-0.185
-0.175
-0.16
-0.17
-0.185
-0.195
-0.205
-0.17
-0.175
-0.16
-0.175
-0.18
-0.18
-0.165
-0.16
-0.15
-0.175
-0.175
-0.17
-0.14
-0.1
-0.095
-0.075
-0.03
0.04
0.135
0.26
0.33
0.36
0.345
0.285
0.215
0.18
0.17
0.215
0.27
0.365
0.505
0.655
0.77
0.83
0.89
0.91
0.865
0.785
0.685
0.59
0.5
0.41
0.32
0.215
0.09
-0.03
-0.145
-0.24
-0.295
-0.33
-0.355
-0.365
-0.36
-0.34
-0.315
-0.29
-0.26
-0.255
-0.255
-0.255
-0.245
-0.23
-0.23
-0.235
-0.245
-0.24
-0.225
-0.21
-0.22
-0.21
-0.23
-0.225
-0.215
-0.2
-0.2
-0.21
-0.225
-0.24
-0.23
-0.215
-0.205
-0.2
-0.21
-0.225
-0.2
-0.185
-0.19
-0.18
-0.185
-0.18
-0.175
-0.15
-0.15
-0.16
-0.155
-0.15
-0.13
-0.11
-0.125
-0.115
-0.12
-0.11
-0.1
-0.075
-0.065
-0.07
-0.075
-0.07
-0.055
-0.04
-0.005
-0.015
-0.005
0.005
0.03
0.04
0.055
0.06
0.05
0.055
0.07
0.105
0.115
0.125
0.12
0.115
0.16
0.17
0.2
0.195
0.19
0.18
0.205
0.225
0.215
0.205
0.17
0.145
0.14
0.13
0.11
0.075
0.04
0.02
0.02
0.015
0.005
-0.025
-0.04
-0.055
-0.06
-0.045
-0.055
-0.075
-0.095
-0.11
-0.09
-0.075
-0.09
-0.095
-0.12
-0.115
-0.11
-0.105
-0.105
-0.12
-0.13
-0.14
-0.12
-0.1
-0.105
-0.12
-0.135
-0.14
-0.115
-0.105
-0.105
-0.105
-0.13
-0.135
-0.11
-0.1
-0.11
-0.1
-0.13
-0.115
-0.1
-0.095
-0.09
-0.11
-0.115
-0.125
-0.11
-0.09
-0.1
-0.1
-0.115
-0.125
-0.105
-0.085
-0.105
-0.105
-0.12
-0.125
-0.12
-0.105
-0.1
-0.11
-0.14
-0.125
-0.115
-0.095
-0.105
-0.115
-0.125
-0.135
-0.125
-0.115
-0.115
-0.125
-0.125
-0.125
-0.11
-0.105
-0.105
-0.12
-0.13
-0.135
-0.12
-0.12
-0.1
-0.12
-0.125
-0.12
-0.12
-0.12
-0.11
-0.115
-0.135
-0.13
-0.12
-0.105
-0.11
-0.12
-0.135
-0.135
-0.12
-0.11
-0.095
-0.095
-0.12
-0.09
-0.065
-0.06
-0.055
-0.065
-0.09
-0.09
-0.07
-0.04
-0.035
-0.025
-0.04
-0.035
-0.035
-0.02
-0.03
-0.04
-0.055
-0.065
-0.05
-0.04
-0.045
-0.06
-0.09
-0.1
-0.1
-0.085
-0.085
-0.105
-0.11
-0.11
-0.105
-0.095
-0.095
-0.1
-0.12
-0.115
-0.12
-0.11
-0.11
-0.13
-0.125
-0.13
-0.115
-0.1
-0.115
-0.12
-0.145
-0.145
-0.13
-0.13
-0.125
-0.145
-0.155
-0.14
-0.14
-0.13
-0.135
-0.15
-0.17
-0.145
-0.14
-0.125
-0.115
-0.135
-0.145
-0.145
-0.135
-0.12
-0.13
-0.125
-0.15
-0.155
-0.135
-0.12
-0.12
-0.12
-0.13
-0.13
-0.1
-0.085
-0.055
-0.04
-0.035
-0.01
0.065
0.135
0.21
0.27
0.3
0.32
0.33
0.3
0.225
0.17
0.12
0.145
0.225
0.37
0.485
0.615
0.71
0.81
0.875
0.9
0.845
0.74
0.61
0.5
0.435
0.35
0.225
0.1
-0.06
-0.17
-0.255
-0.31
-0.36
-0.375
-0.39
-0.36
-0.31
-0.26
-0.225
-0.205
-0.205
-0.21
-0.195
-0.18
-0.175
-0.185
-0.2
-0.195
-0.175
-0.165
-0.165
-0.17
-0.19
-0.185
-0.175
-0.16
-0.165
-0.18
-0.185
-0.175
-0.16
-0.15
-0.15
-0.145
-0.16
-0.155
-0.15
-0.13
-0.13
-0.145
-0.14
-0.135
-0.125
-0.105
-0.1
-0.095
-0.11
-0.105
-0.09
-0.08
-0.05
-0.05
-0.065
-0.07
-0.04
-0.025
-0.005
0.0
0.005
0.0
0.04
0.06
0.07
0.07
0.06
0.085
0.1
0.12
0.13
0.135
0.135
0.145
0.17
0.2
0.22
0.225
0.235
0.24
0.25
0.265
0.265
0.245
0.22
0.18
0.195
0.18
0.15
0.105
0.065
0.055
0.05
0.035
0.04
0.01
-0.015
-0.03
-0.03
-0.025
-0.035
-0.05
-0.08
-0.075
-0.07
-0.08
-0.07
-0.085
-0.085
-0.105
-0.105
-0.095
-0.08
-0.1
-0.095
-0.11
-0.115
-0.1
-0.095
-0.09
-0.11
-0.11
-0.11
-0.105
-0.1
-0.1
-0.11
-0.115
-0.095
-0.1
-0.105
-0.09
-0.1
-0.115
-0.125
-0.12
-0.105
-0.1
-0.125
-0.125
-0.12
-0.11
-0.1
-0.115
-0.125
-0.13
-0.125
-0.12
-0.125
-0.115
-0.14
-0.15
-0.13
-0.12
-0.12
-0.12
-0.125
-0.14
-0.125
-0.115
-0.12
-0.13
-0.155
-0.135
-0.135
-0.13
-0.125
-0.13
-0.15
-0.155
-0.145
-0.14
-0.14
-0.16
-0.145
-0.17
-0.16
-0.135
-0.135
-0.145
-0.155
-0.16
-0.15
-0.145
-0.145
-0.15
-0.17
-0.16
-0.165
-0.135
-0.135
-0.14
-0.145
-0.15
-0.14
-0.11
-0.115
-0.105
-0.125
-0.12
-0.105
-0.09
-0.075
-0.07
-0.09
-0.085
-0.07
-0.05
-0.065
-0.08
-0.09
-0.1
-0.09
-0.09
-0.09
-0.115
-0.13
-0.135
-0.125
-0.13
-0.14
-0.135
-0.16
-0.18
-0.155
-0.14
-0.155
-0.155
-0.185
-0.185
-0.175
-0.18
-0.19
-0.2
-0.215
-0.215
-0.2
-0.18
-0.2
-0.21
-0.215
-0.22
-0.21
-0.195
-0.19
-0.2
-0.225
-0.23
-0.23
-0.205
-0.195
-0.205
-0.23
-0.235
-0.22
-0.205
-0.195
-0.22
-0.22
-0.22
-0.22
-0.195
-0.2
-0.21
-0.24
-0.23
-0.21
-0.19
-0.195
-0.195
-0.21
-0.205
-0.195
-0.185
-0.165
-0.16
-0.145
-0.135
-0.1
-0.05
-0.005
0.07
0.135
0.205
0.26
0.285
0.285
0.23
0.12
0.04
-0.01
0.025
0.115
0.235
0.375
0.505
0.65
0.745
0.805
0.785
0.715
0.6
0.495
0.405
0.31
0.185
0.06
-0.065
-0.175
-0.26
-0.34
-0.41
-0.44
-0.46
-0.445
-0.395
-0.35
-0.33
-0.315
-0.295
-0.29
-0.27
-0.275
-0.295
-0.29
-0.3
-0.28
-0.265
-0.26
-0.285
-0.3
-0.285
-0.28
-0.26
-0.25
-0.26
-0.27
-0.285
-0.265
-0.25
-0.255
-0.245
-0.26
-0.25
-0.25
-0.235
-0.22
-0.22
-0.225
-0.225
-0.225
-0.21
-0.185
-0.195
-0.195
-0.2
-0.185
-0.165
-0.155
-0.145
-0.15
-0.15
-0.12
-0.095
-0.08
-0.075
-0.085
-0.085
-0.045
-0.035
-0.005
0.005
0.005
0.01
0.05
0.07
0.085
0.08
0.08
0.085
0.105
0.14
0.165
0.155
0.155
0.17
0.17
0.175
0.19
0.175
0.135
0.12
0.105
0.095
0.07
0.035
0.0
-0.025
-0.03
-0.025
-0.055
-0.08
-0.105
-0.115
-0.115
-0.105
-0.1
-0.13
-0.135
-0.145
-0.15
-0.14
-0.15
-0.155
-0.18
-0.165
-0.17
-0.165
-0.155
-0.17
-0.17
-0.195
-0.175
-0.15
-0.155
-0.165
-0.175
-0.19
-0.19
-0.155
-0.145
-0.155
-0.17
-0.165
-0.155
-0.14
-0.14
-0.15
-0.16
-0.17
-0.16
-0.135
-0.13
-0.145
-0.16
-0.16
-0.135
-0.13
-0.145
-0.145
-0.165
-0.15
-0.15
-0.125
-0.135
-0.15
-0.155
-0.165
-0.145
-0.14
-0.13
-0.145
-0.155
-0.15
-0.145
-0.15
-0.12
-0.145
-0.14
-0.16
-0.135
-0.13
-0.145
-0.145
-0.16
-0.18
-0.16
-0.135
-0.145
-0.15
-0.165
-0.16
-0.155
-0.155
-0.135
-0.155
-0.17
-0.18
-0.15
-0.14
-0.13
-0.13
-0.145
-0.14
-0.12
-0.11
-0.115
-0.105
-0.12
-0.115
-0.095
-0.09
-0.08
-0.08
-0.08
-0.075
-0.07
-0.06
-0.065
-0.08
-0.095
-0.105
-0.105
-0.105
-0.095
-0.11
-0.14
-0.14
-0.14
-0.135
-0.125
-0.13
-0.145
-0.16
-0.155
-0.15
-0.15
-0.16
-0.185
-0.19
-0.18
-0.18
-0.18
-0.175
-0.18
-0.19
-0.185
-0.18
-0.175
-0.185
-0.195
-0.215
-0.185
-0.185
-0.175
-0.185
-0.19
-0.2
-0.195
-0.18
-0.19
-0.185
-0.205
-0.205
-0.19
-0.17
-0.175
-0.195
-0.195
-0.22
-0.2
-0.185
-0.185
-0.185
-0.195
-0.2
-0.185
-0.185
-0.16
-0.16
-0.175
-0.17
-0.16
-0.14
-0.12
-0.115
-0.11
-0.115
-0.07
-0.01
0.045
0.11
0.175
0.22
0.275
0.31
0.28
0.235
0.15
0.08
0.08
0.125
0.215
0.32
0.435
0.55
0.68
0.785
0.86
0.875
0.815
0.695
0.595
0.515
0.43
0.325
0.195
0.09
-0.03
-0.145
-0.25
-0.315
-0.395
-0.43
-0.42
-0.385
-0.35
-0.31
-0.285
-0.25
-0.24
-0.22
-0.215
-0.225
-0.235
-0.235
-0.23
-0.215
-0.205
-0.205
-0.225
-0.225
-0.215
-0.215
-0.195
-0.205
-0.21
-0.22
-0.215
-0.19
-0.18
-0.19
-0.215
-0.225
-0.205
-0.185
-0.17
-0.175
-0.18
-0.18
-0.175
-0.155
-0.145
-0.16
-0.15
-0.165
-0.14
-0.12
-0.11
-0.12
-0.135
-0.125
-0.105
-0.09
-0.065
-0.05
-0.065
-0.05
-0.035
-0.01
0.01
0.01
0.015
0.015
0.035
0.055
0.075
0.085
0.075
0.085
0.12
0.145
0.175
0.17
0.175
0.18
0.205
0.21
0.21
0.18
0.17
0.125
0.14
0.12
0.1
0.075
0.045
0.0
0.0
-0.005
-0.02
-0.035
-0.065
-0.085
-0.09
-0.09
-0.085
-0.1
-0.125
-0.135
-0.12
-0.115
-0.1
-0.13
-0.14
-0.15
-0.14
-0.135
-0.12
-0.14
-0.15
-0.15
-0.14
-0.145
-0.14
-0.145
-0.15
-0.16
-0.15
-0.145
-0.125
-0.14
-0.155
-0.165
-0.14
-0.14
-0.13
-0.14
-0.155
-0.16
-0.16
-0.13
-0.14
-0.15
-0.155
-0.165
-0.17
-0.145
-0.155
-0.16
-0.165
-0.17
-0.155
-0.15
-0.15
-0.165
-0.18
-0.18
-0.165
-0.155
-0.155
-0.16
-0.19
-0.185
-0.175
-0.165
-0.15
-0.17
-0.17
-0.175
-0.16
-0.165
-0.145
-0.17
-0.18
-0.185
-0.195
-0.165
-0.155
-0.17
-0.185
-0.185
-0.19
-0.165
-0.165
-0.16
-0.185
-0.18
-0.17
-0.15
-0.15
-0.15
-0.145
-0.145
-0.13
-0.12
-0.11
-0.12
-0.13
-0.12
-0.125
-0.095
-0.08
-0.08
-0.1
-0.12
-0.095
-0.085
-0.095
-0.12
-0.115
-0.12
-0.12
-0.11
-0.12
-0.13
-0.155
-0.16
-0.155
-0.14
-0.145
-0.155
-0.17
-0.17
-0.16
-0.16
-0.165
-0.165
-0.185
-0.205
-0.2
-0.2
-0.19
-0.2
-0.205
-0.21
-0.2
-0.19
-0.195
-0.205
-0.22
-0.235
-0.205
-0.205
-0.2
-0.22
-0.23
-0.25
-0.23
-0.215
-0.21
-0.215
-0.23
-0.245
-0.225
-0.215
-0.205
-0.21
-0.21
-0.22
-0.205
-0.19
-0.19
-0.195
-0.21
-0.23
-0.21
-0.19
-0.19
-0.18
-0.195
-0.2
-0.195
-0.2
-0.18
-0.185
-0.19
-0.18
-0.175
-0.14
-0.125
-0.11
-0.105
-0.055
-0.005
0.075
0.135
0.205
0.22
0.235
0.24
0.22
0.16
0.085
0.025
0.03
0.09
0.195
0.295
0.415
0.525
0.625
0.715
0.785
0.82
0.775
0.665
0.56
0.465
0.375
0.29
0.18
0.06
-0.065
-0.18
-0.27
-0.35
-0.415
-0.47
-0.475
-0.455
-0.43
-0.39
-0.37
-0.34
-0.32
-0.285
-0.265
-0.255
-0.26
-0.275
-0.29
-0.27
-0.255
-0.255
-0.25
-0.275
-0.275
-0.265
-0.25
-0.245
-0.25
-0.26
-0.255
-0.25
-0.24
-0.23
-0.24
-0.24
-0.255
-0.23
-0.22
-0.205
-0.225
-0.225
-0.225
-0.22
-0.21
-0.19
-0.205
-0.21
-0.21
-0.195
-0.18
-0.17
-0.185
-0.175
-0.17
-0.16
-0.125
-0.125
-0.13
-0.135
-0.125
-0.115
-0.075
-0.075
-0.08
-0.085
-0.07
-0.065
-0.02
-0.02
-0.005
-0.01
0.0
0.02
0.05
0.06
0.065
0.055
0.065
0.085
0.11
0.12
0.135
0.125
0.14
0.165
0.175
0.195
0.195
0.18
0.18
0.18
0.18
0.155
0.15
0.12
0.09
0.085
0.075
0.04
0.02
-0.015
-0.03
-0.045
-0.035
-0.06
-0.075
-0.095
-0.125
-0.115
-0.105
-0.1
-0.13
-0.15
-0.15
-0.145
-0.14
-0.135
-0.15
-0.16
-0.17
-0.17
-0.16
-0.15
-0.16
-0.175
-0.18
-0.18
-0.175
-0.155
-0.17
-0.175
-0.19
-0.175
-0.17
-0.155
-0.17
-0.17
-0.18
-0.175
-0.165
-0.15
-0.16
-0.18
-0.185
-0.18
-0.17
-0.16
-0.165
-0.18
-0.2
-0.175
-0.17
-0.175
-0.17
-0.2
-0.2
-0.195
-0.175
-0.17
-0.18
-0.195
-0.185
-0.195
-0.195
-0.175
-0.175
-0.195
-0.195
-0.19
-0.175
-0.185
-0.195
-0.205
-0.205
-0.195
-0.18
-0.175
-0.19
-0.2
-0.205
-0.19
-0.185
-0.18
-0.19
-0.21
-0.225
-0.22
-0.205
-0.2
-0.2
-0.205
-0.23
-0.205
-0.185
-0.175
-0.195
-0.21
-0.215
-0.215
-0.205
-0.185
-0.19
-0.19
-0.205
-0.195
-0.185
-0.18
-0.18
-0.175
-0.17
-0.175
-0.15
-0.145
-0.15
-0.165
-0.16
-0.135
-0.115
-0.095
-0.1
-0.115
-0.125
-0.12
-0.11
-0.105
-0.125
-0.15
-0.16
-0.16
-0.14
-0.15
-0.155
-0.175
-0.18
-0.19
-0.185
-0.17
-0.19
-0.21
-0.205
-0.205
-0.195
-0.185
-0.19
-0.21
-0.23
-0.24
-0.22
-0.21
-0.215
-0.235
-0.25
-0.25
-0.235
-0.22
-0.235
-0.24
-0.26
-0.24
-0.24
-0.23
-0.25
-0.255
-0.25
-0.255
-0.235
-0.23
-0.235
-0.255
-0.26
-0.255
-0.235
-0.23
-0.245
-0.245
-0.25
-0.25
-0.225
-0.22
-0.22
-0.24
-0.24
-0.24
-0.22
-0.215
-0.22
-0.24
-0.235
-0.22
-0.2
-0.195
-0.19
-0.205
-0.19
-0.175
-0.14
-0.115
-0.095
-0.07
-0.015
0.04
0.12
0.17
0.205
0.19
0.19
0.155
0.095
0.035
-0.005
-0.005
0.055
0.165
0.29
0.42
0.54
0.63
0.7
0.75
0.765
0.725
0.62
0.505
0.395
0.315
0.24
0.135
0.01
-0.13
-0.265
-0.34
-0.39
-0.445
-0.48
-0.505
-0.505
-0.47
-0.405
-0.375
-0.35
-0.32
-0.315
-0.28
-0.28
-0.275
-0.27
-0.27
-0.29
-0.275
-0.26
-0.265
-0.24
-0.255
-0.27
-0.255
-0.245
-0.23
-0.235
-0.255
-0.265
-0.255
-0.24
-0.225
-0.24
-0.25
-0.255
-0.245
-0.215
-0.21
-0.21
-0.23
-0.22
-0.205
-0.185
-0.185
-0.185
-0.2
-0.185
-0.185
-0.16
-0.15
-0.165
-0.165
-0.17
-0.135
-0.115
-0.105
-0.105
-0.115
-0.11
-0.085
-0.065
-0.05
-0.05
-0.05
-0.05
-0.015
0.0
0.015
0.02
0.02
0.03
0.04
0.075
0.085
0.095
0.085
0.095
0.105
0.14
0.165
0.16
0.145
0.15
0.185
0.21
0.215
0.2
0.185
0.19
0.185
0.18
0.17
0.13
0.105
0.09
0.065
0.055
0.025
0.005
-0.025
-0.045
-0.06
-0.065
-0.06
-0.08
-0.115
-0.15
-0.135
-0.125
-0.13
-0.15
-0.16
-0.165
-0.18
-0.165
-0.155
-0.165
-0.185
-0.185
-0.175
-0.175
-0.165
-0.17
-0.185
-0.19
-0.19
-0.185
-0.18
-0.175
-0.195
-0.21
-0.195
-0.18
-0.175
-0.185
-0.205
-0.205
-0.18
-0.185
-0.18
-0.185
-0.195
-0.205
-0.19
-0.175
-0.17
-0.18
-0.195
-0.21
-0.19
-0.18
-0.185
-0.205
-0.205
-0.23
-0.2
-0.2
-0.2
-0.21
-0.215
-0.23
-0.21
-0.2
-0.19
-0.195
-0.21
-0.225
-0.205
-0.2
-0.195
-0.2
-0.215
-0.22
-0.21
-0.21
-0.205
-0.205
-0.21
-0.225
-0.215
-0.2
-0.195
-0.215
-0.225
-0.235
-0.23
-0.21
-0.21
-0.22
-0.24
-0.245
-0.245
-0.23
-0.235
-0.215
-0.235
-0.24
-0.24
-0.225
-0.22
-0.235
-0.235
-0.255
-0.225
-0.2
-0.2
-0.19
-0.205
-0.205
-0.195
-0.19
-0.17
-0.165
-0.185
-0.185
-0.17
-0.15
-0.135
-0.145
-0.145
-0.135
-0.15
-0.135
-0.135
-0.155
-0.17
-0.18
-0.16
-0.15
-0.16
-0.17
-0.195
-0.195
-0.205
-0.2
-0.195
-0.215
-0.225
-0.235
-0.235
-0.22
-0.22
-0.23
-0.25
-0.265
-0.27
-0.255
-0.26
-0.25
-0.26
-0.26
-0.245
-0.235
-0.245
-0.26
-0.265
-0.275
-0.27
-0.26
-0.27
-0.255
-0.28
-0.275
-0.275
-0.265
-0.25
-0.26
-0.275
-0.295
-0.285
-0.27
-0.27
-0.275
-0.275
-0.29
-0.275
-0.265
-0.26
-0.275
-0.28
-0.275
-0.28
-0.26
-0.275
-0.255
-0.275
-0.27
-0.27
-0.25
-0.25
-0.24
-0.255
-0.25
-0.225
-0.195
-0.19
-0.16
-0.155
-0.115
-0.035
0.045
0.125
0.175
0.19
0.21
0.21
0.185
0.125
0.02
-0.085
-0.12
-0.055
0.05
0.175
0.305
0.42
0.52
0.62
0.7
0.715
0.675
0.6
0.475
0.385
0.29
0.18
0.08
-0.04
-0.165
-0.255
-0.335
-0.39
-0.43
-0.485
-0.515
-0.51
-0.485
-0.46
-0.44
-0.41
-0.39
-0.365
-0.33
-0.32
-0.335
-0.33
-0.33
-0.345
-0.325
-0.315
-0.325
-0.33
-0.34
-0.33
-0.335
-0.315
-0.315
-0.325
-0.32
-0.295
-0.295
-0.285
-0.295
-0.315
-0.325
-0.3
-0.295
-0.285
-0.28
-0.285
-0.305
-0.28
-0.26
-0.25
-0.26
-0.255
-0.26
-0.25
-0.215
-0.205
-0.21
-0.215
-0.22
-0.23
-0.195
-0.18
-0.175
-0.18
-0.18
-0.165
-0.14
-0.13
-0.11
-0.1
-0.1
-0.095
-0.05
-0.025
-0.04
-0.03
-0.03
-0.01
0.02
0.03
0.035
0.045
0.05
0.065
0.085
0.1
0.11
0.115
0.12
0.13
0.16
0.16
0.17
0.15
0.15
0.165
0.175
0.17
0.15
0.12
0.1
0.085
0.085
0.06
0.03
0.005
-0.02
-0.04
-0.055
-0.085
-0.095
-0.12
-0.125
-0.13
-0.135
-0.135
-0.15
-0.175
-0.195
-0.185
-0.175
-0.185
-0.185
-0.2
-0.205
-0.2
-0.19
-0.195
-0.19
-0.205
-0.22
-0.21
-0.21
-0.195
-0.2
-0.21
-0.22
-0.205
-0.2
-0.19
-0.205
-0.21
-0.23
-0.205
-0.205
-0.19
-0.2
-0.2
-0.205
-0.2
-0.185
-0.185
-0.18
-0.19
-0.215
-0.2
-0.195
-0.185
-0.18
-0.205
-0.235
-0.21
-0.2
-0.185
-0.19
-0.19
-0.195
-0.205
-0.195
-0.18
-0.195
-0.205
-0.21
-0.2
-0.195
-0.185
-0.205
-0.21
-0.21
-0.205
-0.195
-0.175
-0.19
-0.225
-0.22
-0.205
-0.19
-0.205
-0.21
-0.225
-0.23
-0.22
-0.2
-0.21
-0.21
-0.205
-0.22
-0.215
-0.205
-0.2
-0.215
-0.215
-0.235
-0.215
-0.21
-0.2
-0.195
-0.21
-0.22
-0.2
-0.18
-0.18
-0.17
-0.18
-0.175
-0.175
-0.16
-0.14
-0.155
-0.15
-0.16
-0.145
-0.13
-0.105
-0.115
-0.125
-0.135
-0.115
-0.12
-0.12
-0.13
-0.155
-0.165
-0.165
-0.145
-0.155
-0.17
-0.175
-0.21
-0.2
-0.185
-0.185
-0.19
-0.22
-0.22
-0.215
-0.21
-0.22
-0.225
-0.23
-0.23
-0.23
-0.235
-0.225
-0.24
-0.25
-0.245
-0.25
-0.24
-0.215
-0.24
-0.25
-0.265
-0.255
-0.235
-0.22
-0.245
-0.255
-0.255
-0.25
-0.225
-0.22
-0.22
-0.24
-0.255
-0.235
-0.23
-0.22
-0.22
-0.24
-0.24
-0.24
-0.22
-0.2
-0.215
-0.225
-0.225
-0.205
-0.185
-0.155
-0.15
-0.145
-0.13
-0.08
-0.02
0.05
0.12
0.15
0.185
0.235
0.24
0.23
0.155
0.08
0.035
0.055
0.125
0.24
0.36
0.47
0.605
0.7
0.78
0.815
0.76
0.65
0.54
0.435
0.375
0.295
0.18
0.035
-0.09
-0.2
-0.285
-0.34
-0.405
-0.44
-0.455
-0.46
-0.415
-0.38
-0.375
-0.34
-0.31
-0.285
-0.27
-0.26
-0.27
-0.275
-0.29
-0.285
-0.265
-0.245
-0.26
-0.27
-0.28
-0.26
-0.255
-0.25
-0.25
-0.265
-0.25
-0.25
-0.23
-0.22
-0.23
-0.23
-0.245
-0.24
-0.215
-0.205
-0.215
-0.22
-0.23
-0.205
-0.18
-0.18
-0.175
-0.185
-0.19
-0.17
-0.16
-0.145
-0.145
-0.16
-0.165
-0.135
-0.115
-0.095
-0.095
-0.1
-0.09
-0.07
-0.045
-0.025
-0.02
-0.035
-0.01
0.0
0.02
0.035
0.04
0.035
0.035
0.055
0.07
0.085
0.09
0.105
0.105
0.125
0.15
0.18
0.18
0.18
0.185
0.19
0.215
0.225
0.195
0.175
0.16
0.155
0.145
0.125
0.095
0.065
0.04
0.035
0.02
0.015
-0.015
-0.035
-0.06
-0.06
-0.075
-0.07
-0.075
-0.1
-0.115
-0.12
-0.105
-0.1
-0.115
-0.125
-0.14
-0.15
-0.125
-0.115
-0.125
-0.15
-0.14
-0.145
-0.135
-0.115
-0.13
-0.15
-0.155
-0.13
-0.12
-0.105
-0.115
-0.125
-0.135
-0.125
-0.12
-0.11
-0.11
-0.13
-0.13
-0.12
-0.115
-0.1
-0.105
-0.125
-0.14
-0.135
-0.125
-0.11
-0.11
-0.125
-0.135
-0.13
-0.12
-0.11
-0.12
-0.14
-0.155
-0.13
-0.12
-0.125
-0.13
-0.135
-0.145
-0.135
-0.125
-0.12
-0.135
-0.14
-0.145
-0.14
-0.135
-0.125
-0.15
-0.15
-0.165
-0.15
-0.14
-0.14
-0.145
-0.15
-0.16
-0.165
-0.13
-0.13
-0.14
-0.155
-0.17
-0.155
-0.15
-0.145
-0.155
-0.155
-0.165
-0.17
-0.155
-0.15
-0.155
-0.165
-0.175
-0.185
-0.17
-0.145
-0.145
-0.15
-0.15
-0.14
-0.115
-0.105
-0.105
-0.105
-0.135
-0.11
-0.085
-0.08
-0.08
-0.085
-0.1
-0.08
-0.07
-0.065
-0.08
-0.105
-0.12
-0.105
-0.1
-0.095
-0.1
-0.125
-0.14
-0.14
-0.135
-0.13
-0.14
-0.155
-0.165
-0.17
-0.155
-0.15
-0.16
-0.175
-0.19
-0.195
-0.19
-0.185
-0.2
-0.215
-0.215
-0.205
-0.19
-0.18
-0.2
-0.215
-0.24
-0.215
-0.205
-0.2
-0.21
-0.225
-0.22
-0.23
-0.2
-0.2
-0.205
-0.215
-0.22
-0.22
-0.205
-0.2
-0.205
-0.215
-0.22
-0.22
-0.205
-0.195
-0.205
-0.215
-0.23
-0.21
-0.21
-0.21
-0.205
-0.215
-0.225
-0.215
-0.195
-0.195
-0.19
-0.195
-0.185
-0.165
-0.13
-0.095
-0.065
-0.025
0.035
0.12
0.195
0.255
0.265
0.245
0.18
0.11
0.065
0.065
0.115
0.195
0.315
0.485
0.635
0.75
0.815
0.84
0.81
0.73
0.62
0.525
0.42
0.31
0.2
0.07
-0.055
-0.18
-0.285
-0.38
-0.445
-0.47
-0.475
-0.445
-0.425
-0.385
-0.365
-0.325
-0.285
-0.265
-0.26
-0.27
-0.28
-0.28
-0.265
-0.25
-0.25
-0.275
-0.28
-0.26
-0.25
-0.235
-0.245
-0.25
-0.255
-0.245
-0.23
-0.225
-0.24
-0.24
-0.235
-0.235
-0.23
-0.21
-0.215
-0.22
-0.22
-0.215
-0.195
-0.175
-0.18
-0.195
-0.195
-0.18
-0.155
-0.15
-0.145
-0.15
-0.15
-0.14
-0.12
-0.11
-0.095
-0.09
-0.09
-0.08
-0.055
-0.04
-0.025
-0.025
-0.02
-0.005
0.015
0.035
0.05
0.04
0.04
0.07
0.085
0.11
0.115
0.115
0.12
0.145
0.17
0.175
0.185
0.185
0.17
0.175
0.175
0.165
0.155
0.125
0.095
0.08
0.055
0.05
0.025
-0.005
-0.03
-0.05
-0.045
-0.05
-0.075
-0.1
-0.12
-0.13
-0.11
-0.11
-0.13
-0.14
-0.155
-0.15
-0.155
-0.145
-0.145
-0.165
-0.175
-0.175
-0.165
-0.16
-0.16
-0.17
-0.175
-0.19
-0.16
-0.16
-0.165
-0.18
-0.18
-0.17
-0.165
-0.155
-0.16
-0.175
-0.175
-0.17
-0.16
-0.16
-0.15
-0.165
-0.18
-0.165
-0.16
-0.145
-0.15
-0.17
-0.18
-0.175
-0.17
-0.16
-0.155
-0.165
-0.205
-0.18
-0.17
-0.16
-0.165
-0.185
-0.185
-0.19
-0.165
-0.155
-0.175
-0.175
-0.185
-0.185
-0.175
-0.165
-0.18
-0.19
-0.195
-0.205
-0.175
-0.18
-0.195
-0.215
-0.225
-0.22
-0.205
-0.185
-0.19
-0.2
-0.2
-0.2
-0.195
-0.18
-0.19
-0.21
-0.215
-0.2
-0.19
-0.18
-0.18
-0.2
-0.215
-0.21
-0.205
-0.185
-0.205
-0.21
-0.235
-0.21
-0.185
-0.175
-0.18
-0.17
-0.17
-0.175
-0.15
-0.145
-0.145
-0.155
-0.15
-0.145
-0.135
-0.11
-0.11
-0.115
-0.13
-0.15
-0.13
-0.125
-0.15
-0.155
-0.175
-0.16
-0.15
-0.155
-0.17
-0.19
-0.21
-0.21
-0.205
-0.19
-0.195
-0.225
-0.225
-0.23
-0.22
-0.215
-0.235
-0.255
-0.265
-0.245
-0.235
-0.215
-0.24
-0.25
-0.275
-0.26
-0.26
-0.25
-0.26
-0.265
-0.26
-0.27
-0.25
-0.245
-0.245
-0.275
-0.27
-0.26
-0.255
-0.235
-0.26
-0.27
-0.285
-0.275
-0.25
-0.255
-0.26
-0.255
-0.265
-0.265
-0.255
-0.245
-0.255
-0.26
-0.27
-0.26
-0.255
-0.245
-0.245
-0.25
-0.25
-0.235
-0.215
-0.19
-0.175
-0.165
-0.16
-0.095
-0.02
0.07
0.13
0.18
0.195
0.205
0.205
0.155
0.05
-0.04
-0.07
-0.015
0.105
0.24
0.395
0.53
0.62
0.715
0.76
0.75
0.655
0.525
0.395
0.265
0.15
0.04
-0.11
-0.245
-0.35
-0.395
-0.445
-0.46
-0.485
-0.495
-0.465
-0.425
-0.38
-0.345
-0.34
-0.34
-0.355
-0.345
-0.32
-0.305
-0.3
-0.315
-0.325
-0.33
-0.305
-0.295
-0.305
-0.32
-0.31
-0.315
-0.305
-0.285
-0.29
-0.305
-0.31
-0.31
-0.29
-0.275
-0.285
-0.29
-0.3
-0.305
-0.27
-0.255
-0.265
-0.26
-0.28
-0.25
-0.215
-0.205
-0.2
-0.21
-0.215
-0.195
-0.175
-0.165
-0.16
-0.17
-0.16
-0.145
-0.12
-0.105
-0.085
-0.09
-0.085
-0.07
-0.035
-0.015
-0.005
-0.01
-0.015
0.005
0.025
0.05
0.065
0.05
0.055
0.075
0.1
0.11
0.13
0.125
0.135
0.145
0.17
0.185
0.165
0.155
0.13
0.13
0.11
0.1
0.07
0.035
0.005
-0.01
-0.015
-0.025
-0.05
-0.08
-0.105
-0.125
-0.115
-0.12
-0.135
-0.16
-0.185
-0.16
-0.15
-0.175
-0.185
-0.185
-0.2
-0.19
-0.175
-0.18
-0.205
-0.205
-0.215
-0.2
-0.185
-0.185
-0.195
-0.2
-0.23
-0.22
-0.2
-0.185
-0.19
-0.2
-0.21
-0.205
-0.195
-0.18
-0.195
-0.2
-0.205
-0.2
-0.18
-0.17
-0.175
-0.19
-0.19
-0.195
-0.19
-0.175
-0.17
-0.18
-0.195
-0.2
-0.195
-0.175
-0.18
-0.185
-0.2
-0.195
-0.185
-0.165
-0.18
-0.2
-0.2
-0.195
-0.185
-0.175
-0.17
-0.2
-0.2
-0.195
-0.175
-0.17
-0.18
-0.19
-0.2
-0.19
-0.185
-0.17
-0.195
-0.2
-0.2
-0.195
-0.19
-0.175
-0.165
-0.185
-0.2
-0.21
-0.195
-0.185
-0.185
-0.2
-0.2
-0.185
-0.175
-0.165
-0.165
-0.17
-0.185
-0.16
-0.15
-0.14
-0.145
-0.155
-0.155
-0.14
-0.135
-0.105
-0.1
-0.11
-0.105
-0.1
-0.095
-0.1
-0.11
-0.125
-0.14
-0.13
-0.115
-0.13
-0.135
-0.15
-0.165
-0.16
-0.16
-0.16
-0.155
-0.185
-0.19
-0.19
-0.18
-0.175
-0.19
-0.21
-0.225
-0.22
-0.22
-0.215
-0.205
-0.215
-0.21
-0.21
-0.205
-0.21
-0.22
-0.22
-0.235
-0.24
-0.23
-0.205
-0.205
-0.245
-0.245
-0.235
-0.23
-0.22
-0.22
-0.225
-0.24
-0.24
-0.21
-0.215
-0.22
-0.245
-0.245
-0.245
-0.225
-0.21
-0.215
-0.23
-0.23
-0.215
-0.215
-0.2
-0.21
-0.22
-0.23
-0.225
-0.205
-0.18
-0.17
-0.165
-0.16
-0.125
-0.09
-0.04
0.015
0.055
0.115
0.18
0.24
0.275
0.245
0.185
0.105
0.035
0.035
0.105
0.17
0.27
0.395
0.515
0.635
0.73
0.75
0.7
0.59
0.47
0.395
0.32
0.205
0.085
-0.03
-0.15
-0.22
-0.29
-0.365
-0.41
-0.445
-0.435
-0.415
-0.375
-0.35
-0.335
-0.3
-0.285
-0.27
-0.255
-0.265
-0.275
-0.29
-0.295
-0.27
-0.255
-0.255
-0.26
-0.275
-0.265
-0.26
-0.25
-0.25
-0.275
-0.28
-0.265
-0.25
-0.245
-0.24
-0.25
-0.265
-0.25
-0.235
-0.215
-0.22
-0.23
-0.245
-0.23
-0.215
-0.17
-0.175
-0.19
-0.175
-0.175
-0.15
-0.145
-0.125
-0.15
-0.16
-0.12
-0.105
-0.08
-0.08
-0.07
-0.075
-0.05
-0.04
-0.01
-0.005
0.0
-0.02
0.015
0.035
0.065
0.065
0.06
0.065
0.08
0.11
0.13
0.15
0.145
0.15
0.155
0.17
0.18
0.17
0.155
0.135
0.13
0.12
0.1
0.075
0.055
0.015
0.015
-0.01
-0.02
-0.03
-0.06
-0.08
-0.09
-0.095
-0.095
-0.1
-0.13
-0.14
-0.15
-0.13
-0.145
-0.135
-0.16
-0.18
-0.185
-0.17
-0.145
-0.145
-0.175
-0.185
-0.19
-0.17
-0.155
-0.16
-0.18
-0.2
-0.195
-0.17
-0.165
-0.175
-0.19
-0.195
-0.19
-0.17
-0.155
-0.155
-0.18
-0.185
-0.19
-0.17
-0.15
-0.155
-0.165
-0.17
-0.175
-0.165
-0.14
-0.155
-0.16
-0.175
-0.175
-0.165
-0.155
-0.155
-0.17
-0.185
-0.185
-0.17
-0.165
-0.16
-0.175
-0.18
-0.18
-0.17
-0.16
-0.16
-0.185
-0.195
-0.19
-0.17
-0.175
-0.19
-0.195
-0.195
-0.19
-0.18
-0.175
-0.175
-0.195
-0.205
-0.21
-0.195
-0.185
-0.18
-0.195
-0.215
-0.215
-0.195
-0.185
-0.19
-0.2
-0.21
-0.205
-0.21
-0.185
-0.2
-0.2
-0.21
-0.195
-0.195
-0.175
-0.18
-0.19
-0.18
-0.175
-0.145
-0.13
-0.135
-0.15
-0.155
-0.155
-0.135
-0.12
-0.115
-0.13
-0.135
-0.11
-0.09
-0.08
-0.1
-0.11
-0.125
-0.12
-0.11
-0.11
-0.11
-0.14
-0.15
-0.155
-0.15
-0.15
-0.155
-0.17
-0.18
-0.185
-0.16
-0.16
-0.17
-0.18
-0.19
-0.195
-0.18
-0.175
-0.195
-0.215
-0.225
-0.235
-0.195
-0.19
-0.2
-0.21
-0.23
-0.23
-0.21
-0.205
-0.21
-0.23
-0.235
-0.23
-0.21
-0.215
-0.225
-0.23
-0.245
-0.24
-0.245
-0.205
-0.215
-0.225
-0.23
-0.225
-0.225
-0.215
-0.215
-0.23
-0.24
-0.235
-0.215
-0.21
-0.21
-0.215
-0.225
-0.22
-0.21
-0.21
-0.205
-0.2
-0.22
-0.195
-0.18
-0.15
-0.12
-0.11
-0.075
-0.025
0.05
0.13
0.18
0.22
0.245
0.25
0.24
0.2
0.13
0.075
0.05
0.09
0.195
0.315
0.45
0.575
0.665
0.755
0.82
0.825
0.74
0.62
0.5
0.42
0.345
0.255
0.12
-0.02
-0.175
-0.26
-0.325
-0.365
-0.4
-0.45
-0.45
-0.445
-0.405
-0.37
-0.345
-0.325
-0.31
-0.295
-0.285
-0.26
-0.26
-0.28
-0.275
-0.275
-0.26
-0.245
-0.245
-0.255
-0.275
-0.27
-0.25
-0.245
-0.245
-0.255
-0.27
-0.265
-0.26
-0.24
-0.24
-0.255
-0.26
-0.25
-0.24
-0.22
-0.215
-0.24
-0.235
-0.225
-0.21
-0.185
-0.185
-0.195
-0.21
-0.2
-0.18
-0.17
-0.165
-0.17
-0.17
-0.16
-0.125
-0.125
-0.125
-0.135
-0.135
-0.13
-0.09
-0.07
-0.075
-0.07
-0.075
-0.055
-0.035
-0.03
-0.005
0.0
-0.005
0.005
0.025
0.06
0.055
0.05
0.045
0.06
0.09
0.11
0.115
0.125
0.12
0.145
0.16
0.185
0.185
0.17
0.16
0.165
0.165
0.18
0.145
0.125
0.1
0.085
0.08
0.075
0.035
0.025
-0.025
-0.04
-0.035
-0.035
-0.06
-0.085
-0.1
-0.11
-0.11
-0.095
-0.11
-0.15
-0.15
-0.145
-0.13
-0.135
-0.155
-0.16
-0.17
-0.18
-0.155
-0.145
-0.15
-0.165
-0.17
-0.175
-0.15
-0.145
-0.155
-0.17
-0.175
-0.17
-0.16
-0.16
-0.16
-0.165
-0.185
-0.165
-0.15
-0.135
-0.155
-0.16
-0.175
-0.17
-0.175
-0.145
-0.145
-0.17
-0.185
-0.18
-0.16
-0.145
-0.15
-0.155
-0.18
-0.175
-0.165
-0.145
-0.165
-0.195
-0.19
-0.17
-0.165
-0.17
-0.165
-0.18
-0.2
-0.19
-0.175
-0.165
-0.16
-0.165
-0.175
-0.175
-0.165
-0.15
-0.17
-0.19
-0.205
-0.19
-0.175
-0.165
-0.16
-0.17
-0.195
-0.205
-0.18
-0.165
-0.175
-0.19
-0.19
-0.175
-0.19
-0.155
-0.16
-0.175
-0.185
-0.19
-0.17
-0.16
-0.165
-0.175
-0.195
-0.185
-0.17
-0.165
-0.17
-0.17
-0.2
-0.19
-0.165
-0.145
-0.14
-0.14
-0.145
-0.145
-0.13
-0.13
-0.13
-0.15
-0.15
-0.125
-0.105
-0.105
-0.085
-0.1
-0.1
-0.105
-0.115
-0.095
-0.11
-0.11
-0.13
-0.145
-0.145
-0.145
-0.155
-0.16
-0.18
-0.185
-0.185
-0.17
-0.175
-0.19
-0.19
-0.205
-0.18
-0.175
-0.2
-0.215
-0.225
-0.235
-0.225
-0.215
-0.23
-0.235
-0.24
-0.235
-0.225
-0.215
-0.22
-0.24
-0.245
-0.245
-0.235
-0.215
-0.24
-0.235
-0.245
-0.25
-0.24
-0.225
-0.23
-0.235
-0.24
-0.245
-0.235
-0.22
-0.23
-0.24
-0.24
-0.245
-0.235
-0.225
-0.22
-0.235
-0.24
-0.245
-0.23
-0.22
-0.22
-0.235
-0.235
-0.225
-0.225
-0.195
-0.19
-0.18
-0.17
-0.155
-0.1
-0.045
0.0
0.055
0.12
0.195
0.225
0.28
0.255
0.18
0.09
-0.005
-0.065
-0.045
0.015
0.135
0.28
0.445
0.585
0.69
0.745
0.74
0.675
0.575
0.475
0.385
0.27
0.155
0.04
-0.07
-0.19
-0.28
-0.365
-0.445
-0.475
-0.515
-0.515
-0.49
-0.455
-0.435
-0.405
-0.36
-0.33
-0.32
-0.305
-0.325
-0.31
-0.315
-0.295
-0.295
-0.285
-0.295
-0.3
-0.315
-0.3
-0.28
-0.285
-0.29
-0.31
-0.31
-0.29
-0.275
-0.27
-0.28
-0.285
-0.295
-0.255
-0.25
-0.25
-0.255
-0.27
-0.265
-0.265
-0.24
-0.235
-0.235
-0.23
-0.22
-0.2
-0.19
-0.195
-0.205
-0.21
-0.19
-0.16
-0.155
-0.15
-0.145
-0.14
-0.135
-0.115
-0.09
-0.08
-0.095
-0.08
-0.06
-0.025
-0.01
-0.01
-0.015
-0.01
0.02
0.035
0.06
0.07
0.055
0.065
0.08
0.105
0.125
0.135
0.125
0.13
0.14
0.155
0.175
0.18
0.17
0.15
0.125
0.14
0.135
0.1
0.065
0.03
0.025
0.0
-0.01
-0.04
-0.075
-0.085
-0.105
-0.115
-0.105
-0.125
-0.15
-0.17
-0.185
-0.17
-0.165
-0.175
-0.195
-0.22
-0.215
-0.2
-0.19
-0.2
-0.21
-0.235
-0.225
-0.205
-0.2
-0.205
-0.215
-0.235
-0.23
-0.215
-0.215
-0.21
-0.225
-0.235
-0.235
-0.22
-0.2
-0.21
-0.24
-0.24
-0.24
-0.225
-0.205
-0.21
-0.22
-0.23
-0.22
-0.205
-0.2
-0.21
-0.215
-0.23
-0.225
-0.205
-0.195
-0.195
-0.215
-0.22
-0.215
-0.21
-0.2
-0.195
-0.22
-0.22
-0.235
-0.21
-0.205
-0.225
-0.225
-0.225
-0.225
-0.22
-0.205
-0.21
-0.23
-0.23
-0.22
-0.22
-0.185
-0.205
-0.21
-0.22
-0.21
-0.205
-0.2
-0.21
-0.215
-0.225
-0.23
-0.21
-0.195
-0.2
-0.205
-0.225
-0.215
-0.21
-0.19
-0.205
-0.21
-0.23
-0.225
-0.205
-0.19
-0.175
-0.19
-0.19
-0.185
-0.18
-0.15
-0.155
-0.16
-0.175
-0.17
-0.14
-0.125
-0.12
-0.13
-0.13
-0.125
-0.105
-0.09
-0.095
-0.12
-0.145
-0.145
-0.13
-0.115
-0.125
-0.135
-0.15
-0.16
-0.155
-0.145
-0.16
-0.165
-0.18
-0.175
-0.17
-0.16
-0.17
-0.19
-0.21
-0.215
-0.21
-0.2
-0.205
-0.23
-0.225
-0.225
-0.205
-0.2
-0.195
-0.205
-0.22
-0.23
-0.215
-0.21
-0.21
-0.21
-0.225
-0.22
-0.205
-0.2
-0.195
-0.21
-0.23
-0.215
-0.225
-0.19
-0.205
-0.22
-0.225
-0.215
-0.205
-0.2
-0.195
-0.205
-0.215
-0.2
-0.19
-0.16
-0.175
-0.2
-0.21
-0.22
-0.2
-0.185
-0.17
-0.18
-0.18
-0.18
-0.155
-0.135
-0.1
-0.09
-0.055
-0.015
0.06
0.125
0.18
0.23
0.255
0.265
0.29
0.25
0.165
0.09
0.03
0.03
0.085
0.17
0.285
0.395
0.505
0.605
0.695
0.76
0.73
0.63
0.52
0.42
0.35
0.27
0.155
0.045
-0.07
-0.175
-0.265
-0.315
-0.375
-0.415
-0.45
-0.42
-0.395
-0.345
-0.305
-0.295
-0.275
-0.265
-0.23
-0.205
-0.215
-0.22
-0.235
-0.235
-0.225
-0.215
-0.215
-0.22
-0.23
-0.235
-0.22
-0.195
-0.2
-0.21
-0.225
-0.245
-0.205
-0.19
-0.205
-0.195
-0.205
-0.21
-0.18
-0.165
-0.18
-0.18
-0.2
-0.19
-0.175
-0.145
-0.135
-0.155
-0.155
-0.125
-0.11
-0.1
-0.1
-0.1
-0.105
-0.095
-0.075
-0.05
-0.05
-0.055
-0.05
-0.025
-0.005
0.01
0.015
0.02
0.02
0.03
0.055
0.085
0.075
0.08
0.08
0.09
0.12
0.145
0.13
0.135
0.15
0.16
0.175
0.215
0.205
0.2
0.195
0.205
0.225
0.24
0.22
0.215
0.185
0.175
0.16
0.16
0.12
0.085
0.065
0.05
0.04
0.01
0.0
-0.04
-0.05
-0.065
-0.065
-0.07
-0.08
-0.1
-0.13
-0.13
-0.11
-0.1
-0.125
-0.135
-0.155
-0.155
-0.145
-0.14
-0.135
-0.15
-0.165
-0.18
-0.17
-0.15
-0.15
-0.155
-0.17
-0.17
-0.155
-0.135
-0.145
-0.165
-0.16
-0.165
-0.15
-0.135
-0.15
-0.15
-0.16
-0.15
-0.145
-0.125
-0.15
-0.145
-0.17
-0.155
-0.15
-0.135
-0.14
-0.15
-0.16
-0.165
-0.145
-0.14
-0.14
-0.17
-0.175
-0.165
-0.155
-0.145
-0.15
-0.16
-0.175
-0.16
-0.16
-0.155
-0.155
-0.175
-0.18
-0.185
-0.175
-0.165
-0.17
-0.19
-0.195
-0.2
-0.17
-0.165
-0.18
-0.19
-0.195
-0.195
-0.19
-0.18
-0.19
-0.18
-0.21
-0.21
-0.195
-0.18
-0.18
-0.18
-0.195
-0.185
-0.17
-0.165
-0.14
-0.155
-0.19
-0.155
-0.14
-0.13
-0.13
-0.135
-0.155
-0.145
-0.12
-0.1
-0.11
-0.11
-0.11
-0.115
-0.105
-0.095
-0.11
-0.12
-0.135
-0.14
-0.14
-0.13
-0.145
-0.165
-0.17
-0.185
-0.18
-0.17
-0.17
-0.185
-0.195
-0.2
-0.2
-0.195
-0.185
-0.2
-0.225
-0.225
-0.225
-0.225
-0.23
-0.23
-0.225
-0.23
-0.215
-0.215
-0.22
-0.235
-0.26
-0.245
-0.24
-0.24
-0.235
-0.24
-0.265
-0.26
-0.245
-0.235
-0.25
-0.25
-0.265
-0.265
-0.235
-0.255
-0.24
-0.25
-0.26
-0.245
-0.25
-0.24
-0.235
-0.245
-0.255
-0.26
-0.255
-0.225
-0.23
-0.255
-0.25
-0.245
-0.225
-0.215
-0.205
-0.205
-0.195
-0.16
-0.13
-0.07
-0.015
0.04
0.09
0.145
0.17
0.17
0.125
0.025
-0.065
-0.12
-0.09
-0.025
0.085
0.21
0.35
0.485
0.58
0.665
0.675
0.625
0.49
0.37
0.295
0.205
0.115
-0.02
-0.145
-0.265
-0.365
-0.43
-0.505
-0.545
-0.57
-0.565
-0.535
-0.475
-0.44
-0.405
-0.39
-0.35
-0.32
-0.3
-0.3
-0.305
-0.335
-0.33
-0.29
-0.28
-0.28
-0.3
-0.305
-0.295
-0.275
-0.255
-0.26
-0.27
-0.275
-0.27
-0.265
-0.25
-0.26
-0.265
-0.285
-0.28
-0.26
-0.235
-0.235
-0.245
-0.255
-0.245
-0.22
-0.205
-0.21
-0.195
-0.21
-0.21
-0.175
-0.155
-0.15
-0.15
-0.16
-0.15
-0.135
-0.115
-0.105
-0.105
-0.115
-0.085
-0.055
-0.05
-0.03
-0.02
-0.025
-0.02
0.005
0.03
0.045
0.035
0.04
0.05
0.065
0.085
0.09
0.09
0.1
0.11
0.13
0.14
0.145
0.14
0.13
0.14
0.155
0.18
0.14
0.125
0.095
0.08
0.065
0.06
0.03
0.0
-0.035
-0.055
-0.055
-0.065
-0.09
-0.11
-0.14
-0.155
-0.145
-0.145
-0.15
-0.175
-0.195
-0.19
-0.185
-0.18
-0.19
-0.195
-0.22
-0.22
-0.21
-0.19
-0.21
-0.21
-0.225
-0.235
-0.205
-0.2
-0.205
-0.215
-0.235
-0.23
-0.215
-0.2
-0.21
-0.22
-0.225
-0.225
-0.22
-0.205
-0.2
-0.215
-0.225
-0.23
-0.22
-0.21
-0.21
-0.225
-0.22
-0.22
-0.21
-0.2
-0.205
-0.215
-0.22
-0.23
-0.215
-0.195
-0.2
-0.22
-0.225
-0.225
-0.225
-0.21
-0.22
-0.225
-0.25
-0.245
-0.235
-0.225
-0.225
-0.235
-0.245
-0.255
-0.245
-0.23
-0.24
-0.26
-0.265
-0.26
-0.245
-0.23
-0.24
-0.245
-0.26
-0.27
-0.26
-0.24
-0.24
-0.26
-0.265
-0.265
-0.255
-0.245
-0.25
-0.26
-0.28
-0.28
-0.265
-0.245
-0.24
-0.27
-0.275
-0.265
-0.265
-0.235
-0.23
-0.24
-0.25
-0.25
-0.235
-0.215
-0.21
-0.225
-0.24
-0.23
-0.21
-0.195
-0.195
-0.205
-0.205
-0.2
-0.195
-0.19
-0.195
-0.21
-0.245
-0.22
-0.205
-0.21
-0.23
-0.25
-0.26
-0.26
-0.26
-0.235
-0.265
-0.27
-0.285
-0.295
-0.28
-0.285
-0.285
-0.295
-0.31
-0.305
-0.295
-0.305
-0.31
-0.31
-0.32
-0.32
-0.295
-0.31
-0.315
-0.325
-0.34
-0.34
-0.335
-0.31
-0.33
-0.34
-0.365
-0.355
-0.35
-0.325
-0.34
-0.345
-0.345
-0.355
-0.325
-0.31
-0.315
-0.325
-0.35
-0.345
-0.33
-0.32
-0.33
-0.34
-0.345
-0.35
-0.34
-0.325
-0.34
-0.35
-0.35
-0.335
-0.335
-0.31
-0.3
-0.31
-0.285
-0.255
-0.215
-0.16
-0.105
-0.04
0.015
0.07
0.11
0.125
0.08
0.005
-0.1
-0.185
-0.225
-0.195
-0.13
-0.01
0.125
0.285
0.425
0.525
0.58
0.59
0.515
0.435
0.335
0.25
0.135
0.015
-0.11
-0.225
-0.33
-0.405
-0.48
-0.545
-0.605
-0.6
-0.59
-0.56
-0.545
-0.52
-0.505
-0.47
-0.43
-0.41
-0.4
-0.4
-0.425
-0.43
-0.415
-0.4
-0.405
-0.405
-0.405
-0.4
-0.39
-0.37
-0.375
-0.385
-0.405
-0.4
-0.39
-0.37
-0.38
-0.38
-0.41
-0.375
-0.38
-0.355
-0.36
-0.35
-0.35
-0.35
-0.335
-0.325
-0.315
-0.33
-0.34
-0.305
-0.295
-0.27
-0.26
-0.27
-0.275
-0.265
-0.25
-0.23
-0.22
-0.225
-0.215
-0.195
-0.175
-0.155
-0.135
-0.13
-0.13
-0.125
-0.095
-0.065
-0.05
-0.055
-0.065
-0.045
-0.025
-0.01
0.0
0.0
0.005
0.02
0.04
0.065
0.07
0.075
0.055
0.065
0.075
0.06
0.05
0.01
-0.015
-0.045
-0.06
-0.07
-0.095
-0.13
-0.17
-0.185
-0.17
-0.19
-0.2
-0.225
-0.255
-0.255
-0.255
-0.245
-0.265
-0.275
-0.295
-0.305
-0.3
-0.29
-0.285
-0.305
-0.31
-0.31
-0.305
-0.29
-0.29
-0.315
-0.32
-0.33
-0.31
-0.29
-0.305
-0.315
-0.32
-0.305
-0.305
-0.31
-0.285
-0.295
-0.33
-0.33
-0.305
-0.28
-0.285
-0.295
-0.305
-0.31
-0.295
-0.275
-0.27
-0.3
-0.305
-0.31
-0.3
-0.28
-0.295
-0.28
-0.3
-0.305
-0.295
-0.285
-0.275
-0.295
-0.31
-0.305
-0.29
-0.285
-0.29
-0.3
-0.33
-0.325
-0.295
-0.295
-0.3
-0.3
-0.31
-0.305
-0.295
-0.275
-0.285
-0.315
-0.32
-0.315
-0.295
-0.295
-0.295
-0.32
-0.32
-0.33
-0.31
-0.295
-0.295
-0.3
-0.31
-0.29
-0.295
-0.255
-0.26
-0.265
-0.275
-0.28
-0.26
-0.25
-0.235
-0.235
-0.245
-0.245
-0.24
-0.195
-0.215
-0.22
-0.23
-0.23
-0.22
-0.21
-0.21
-0.24
-0.265
-0.255
-0.26
-0.25
-0.245
-0.255
-0.275
-0.275
-0.275
-0.275
-0.275
-0.305
-0.32
-0.315
-0.305
-0.285
-0.315
-0.33
-0.345
-0.33
-0.305
-0.28
-0.29
-0.3
-0.325
-0.325
-0.32
-0.305
-0.32
-0.32
-0.34
-0.34
-0.325
-0.325
-0.31
-0.325
-0.335
-0.335
-0.31
-0.305
-0.305
-0.315
-0.335
-0.315
-0.305
-0.295
-0.285
-0.305
-0.32
-0.32
-0.295
-0.295
-0.28
-0.3
-0.3
-0.3
-0.275
-0.265
-0.265
-0.265
-0.27
-0.26
-0.225
-0.18
-0.165
-0.145
-0.115
-0.02
0.05
0.115
0.165
0.195
0.21
0.19
0.14
0.085
-0.005
-0.075
-0.08
-0.04
0.05
0.165
0.28
0.385
0.475
0.55
0.59
0.565
0.49
0.375
0.275
0.205
0.125
0.065
-0.005
-0.1
-0.195
-0.285
-0.345
-0.39
-0.43
-0.455
-0.465
-0.455
-0.43
-0.355
-0.34
-0.335
-0.335
-0.325
-0.31
-0.3
-0.305
-0.31
-0.315
-0.31
-0.305
-0.28
-0.285
-0.28
-0.305
-0.305
-0.29
-0.27
-0.27
-0.29
-0.3
-0.29
-0.27
-0.27
-0.265
-0.275
-0.28
-0.275
-0.255
-0.235
-0.23
-0.25
-0.255
-0.245
-0.24
-0.2
-0.2
-0.2
-0.205
-0.21
-0.18
-0.145
-0.135
-0.145
-0.155
-0.14
-0.11
-0.1
-0.07
-0.07
-0.075
-0.055
-0.045
-0.005
0.01
0.01
0.005
0.015
0.03
0.065
0.07
0.075
0.07
0.09
0.115
0.135
0.16
0.17
0.175
0.175
0.19
0.225
0.215
0.21
0.185
0.18
0.17
0.165
0.135
0.1
0.075
0.055
0.045
0.035
0.0
-0.02
-0.06
-0.055
-0.065
-0.05
-0.07
-0.085
-0.105
-0.12
-0.105
-0.09
-0.1
-0.12
-0.135
-0.135
-0.125
-0.115
-0.11
-0.14
-0.16
-0.145
-0.15
-0.12
-0.135
-0.14
-0.15
-0.17
-0.135
-0.135
-0.13
-0.14
-0.145
-0.145
-0.14
-0.12
-0.12
-0.125
-0.125
-0.135
-0.12
-0.115
-0.13
-0.12
-0.125
-0.145
-0.115
-0.105
-0.105
-0.12
-0.135
-0.14
-0.12
-0.105
-0.115
-0.14
-0.145
-0.14
-0.135
-0.105
-0.115
-0.14
-0.145
-0.145
-0.145
-0.13
-0.125
-0.14
-0.165
-0.165
-0.155
-0.135
-0.14
-0.16
-0.155
-0.155
-0.155
-0.125
-0.145
-0.175
-0.175
-0.165
-0.155
-0.135
-0.145
-0.15
-0.155
-0.17
-0.15
-0.14
-0.145
-0.16
-0.165
-0.17
-0.16
-0.14
-0.15
-0.16
-0.175
-0.165
-0.14
-0.115
-0.125
-0.12
-0.145
-0.135
-0.13
-0.09
-0.09
-0.105
-0.1
-0.095
-0.075
-0.065
-0.075
-0.1
-0.11
-0.12
-0.1
-0.1
-0.11
-0.14
-0.15
-0.17
-0.155
-0.14
-0.14
-0.16
-0.17
-0.2
-0.18
-0.17
-0.17
-0.185
-0.19
-0.2
-0.21
-0.2
-0.195
-0.2
-0.215
-0.22
-0.215
-0.205
-0.215
-0.235
-0.245
-0.235
-0.23
-0.21
-0.21
-0.23
-0.245
-0.235
-0.225
-0.22
-0.205
-0.225
-0.245
-0.24
-0.225
-0.21
-0.21
-0.235
-0.24
-0.24
-0.225
-0.21
-0.225
-0.22
-0.245
-0.235
-0.225
-0.2
-0.2
-0.18
-0.19
-0.16
-0.125
-0.05
0.015
0.08
0.14
0.2
0.23
0.23
0.19
0.095
0.015
-0.015
0.05
0.17
0.31
0.46
0.585
0.69
0.765
0.81
0.735
0.605
0.445
0.345
0.255
0.135
-0.005
-0.17
-0.32
-0.42
-0.47
-0.49
-0.49
-0.475
-0.44
-0.41
-0.345
-0.315
-0.3
-0.32
-0.32
-0.335
-0.305
-0.305
-0.29
-0.3
-0.31
-0.315
-0.3
-0.275
-0.28
-0.3
-0.315
-0.305
-0.29
-0.27
-0.275
-0.275
-0.295
-0.29
-0.27
-0.255
-0.255
-0.27
-0.28
-0.27
-0.26
-0.235
-0.23
-0.25
-0.26
-0.255
-0.235
-0.21
-0.21
-0.205
-0.215
-0.21
-0.19
-0.175
-0.165
-0.18
-0.185
-0.175
-0.14
-0.125
-0.12
-0.115
-0.115
-0.11
-0.085
-0.065
-0.06
-0.065
-0.075
-0.07
-0.04
-0.005
0.005
-0.005
0.0
0.02
0.045
0.075
0.075
0.09
0.08
0.09
0.095
0.12
0.105
0.095
0.07
0.05
0.055
0.045
0.025
-0.005
-0.055
-0.065
-0.085
-0.08
-0.105
-0.1
-0.14
-0.165
-0.16
-0.165
-0.17
-0.195
-0.19
-0.195
-0.19
-0.18
-0.195
-0.21
-0.24
-0.225
-0.22
-0.2
-0.22
-0.21
-0.225
-0.23
-0.225
-0.205
-0.205
-0.225
-0.225
-0.225
-0.22
-0.2
-0.225
-0.225
-0.235
-0.245
-0.235
-0.24
-0.225
-0.245
-0.255
-0.245
-0.235
-0.215
-0.215
-0.24
-0.245
-0.25
-0.24
-0.22
-0.215
-0.235
-0.245
-0.25
-0.24
-0.23
-0.235
-0.26
-0.26
-0.265
-0.255
-0.245
-0.24
-0.255
-0.27
-0.27
-0.255
-0.25
-0.25
-0.26
-0.27
-0.28
-0.27
-0.245
-0.265
-0.275
-0.29
-0.28
-0.275
-0.27
-0.27
-0.28
-0.29
-0.29
-0.28
-0.26
-0.265
-0.275
-0.295
-0.3
-0.285
-0.275
-0.275
-0.29
-0.315
-0.295
-0.29
-0.3
-0.285
-0.3
-0.3
-0.3
-0.295
-0.28
-0.29
-0.295
-0.305
-0.295
-0.27
-0.255
-0.24
-0.255
-0.275
-0.275
-0.255
-0.24
-0.245
-0.245
-0.255
-0.24
-0.225
-0.2
-0.205
-0.22
-0.24
-0.265
-0.255
-0.24
-0.25
-0.265
-0.285
-0.295
-0.29
-0.28
-0.285
-0.3
-0.305
-0.305
-0.31
-0.305
-0.3
-0.32
-0.33
-0.33
-0.325
-0.325
-0.335
-0.36
-0.37
-0.365
-0.35
-0.335
-0.34
-0.36
-0.375
-0.375
-0.365
-0.355
-0.355
-0.365
-0.385
-0.39
-0.37
-0.365
-0.37
-0.365
-0.39
-0.4
-0.37
-0.35
-0.35
-0.365
-0.38
-0.385
-0.375
-0.355
-0.355
-0.365
-0.375
-0.38
-0.38
-0.355
-0.35
-0.375
-0.375
-0.365
-0.35
-0.335
-0.345
-0.335
-0.335
-0.315
-0.285
-0.235
-0.195
-0.15
-0.07
0.015
0.1
0.175
0.2
0.19
0.14
0.05
-0.05
-0.07
-0.065
0.01
0.12
0.28
0.435
0.57
0.64
0.7
0.69
0.615
0.51
0.435
0.33
0.21
0.09
-0.02
-0.145
-0.245
-0.35
-0.45
-0.535
-0.58
-0.595
-0.585
-0.57
-0.565
-0.565
-0.53
-0.49
-0.48
-0.48
-0.475
-0.475
-0.46
-0.45
-0.45
-0.435
-0.45
-0.445
-0.44
-0.435
-0.425
-0.45
-0.445
-0.47
-0.465
-0.445
-0.435
-0.425
-0.43
-0.455
-0.46
-0.43
-0.425
-0.425
-0.425
-0.435
-0.43
-0.425
-0.405
-0.385
-0.39
-0.405
-0.41
-0.39
-0.375
-0.375
-0.37
-0.385
-0.39
-0.37
-0.335
-0.34
-0.34
-0.35
-0.34
-0.315
-0.305
-0.28
-0.285
-0.285
-0.285
-0.245
-0.215
-0.22
-0.21
-0.21
-0.195
-0.185
-0.14
-0.15
-0.14
-0.14
-0.14
-0.115
-0.08
-0.06
-0.07
-0.055
-0.045
-0.015
0.0
0.015
0.0
0.0
0.0
0.01
0.015
-0.005
-0.025
-0.06
-0.085
-0.1
-0.1
-0.125
-0.145
-0.185
-0.195
-0.195
-0.19
-0.215
-0.225
-0.245
-0.265
-0.25
-0.265
-0.245
-0.265
-0.28
-0.29
-0.28
-0.275
-0.275
-0.285
-0.295
-0.305
-0.29
-0.28
-0.28
-0.29
-0.295
-0.285
-0.285
-0.28
-0.28
-0.275
-0.295
-0.285
-0.275
-0.255
-0.27
-0.275
-0.28
-0.285
-0.265
-0.26
-0.255
-0.275
-0.28
-0.275
-0.255
-0.24
-0.25
-0.26
-0.27
-0.27
-0.255
-0.24
-0.235
-0.25
-0.26
-0.25
-0.245
-0.225
-0.23
-0.235
-0.245
-0.24
-0.22
-0.22
-0.2
-0.22
-0.23
-0.245
-0.225
-0.21
-0.21
-0.215
-0.23
-0.225
-0.21
-0.2
-0.195
-0.22
-0.23
-0.225
-0.21
-0.185
-0.19
-0.205
-0.22
-0.21
-0.185
-0.175
-0.18
-0.19
-0.2
-0.215
-0.215
-0.185
-0.18
-0.195
-0.2
-0.195
-0.175
-0.145
-0.15
-0.16
-0.165
-0.165
-0.16
-0.13
-0.13
-0.12
-0.13
-0.135
-0.105
-0.095
-0.08
-0.095
-0.1
-0.115
-0.105
-0.105
-0.1
-0.125
-0.125
-0.145
-0.135
-0.14
-0.125
-0.15
-0.165
-0.165
-0.165
-0.155
-0.145
-0.165
-0.18
-0.175
-0.175
-0.16
-0.145
-0.17
-0.205
-0.205
-0.2
-0.18
-0.17
-0.175
-0.2
-0.19
-0.205
-0.19
-0.185
-0.2
-0.2
-0.205
-0.195
-0.19
-0.19
-0.2
-0.23
-0.22
-0.205
-0.185
-0.195
-0.2
-0.195
-0.2
-0.2
-0.18
-0.18
-0.195
-0.185
-0.205
-0.195
-0.19
-0.175
-0.18
-0.18
-0.19
-0.185
-0.17
-0.17
-0.17
-0.17
-0.165
-0.14
-0.115
-0.08
-0.065
-0.065
-0.01
0.06
0.155
0.23
0.28
0.325
0.355
0.345
0.335
0.27
0.21
0.175
0.2
0.275
0.37
0.48
0.605
0.7
0.78
0.88
0.94
0.94
0.85
0.73
0.64
0.57
0.52
0.425
0.32
0.205
0.09
-0.01
-0.11
-0.21
-0.29
-0.36
-0.395
-0.39
-0.36
-0.33
-0.32
-0.29
-0.27
-0.25
-0.235
-0.23
-0.245
-0.26
-0.255
-0.255
-0.24
-0.24
-0.245
-0.26
-0.25
-0.24
-0.24
-0.23
-0.245
-0.255
-0.255
-0.25
-0.235
-0.235
-0.245
-0.245
-0.255
-0.235
-0.22
-0.21
-0.225
-0.235
-0.235
-0.22
-0.21
-0.21
-0.215
-0.215
-0.2
-0.195
-0.165
-0.16
-0.17
-0.185
-0.175
-0.155
-0.15
-0.135
-0.14
-0.135
-0.14
-0.115
-0.085
-0.09
-0.1
-0.1
-0.09
-0.065
-0.05
-0.035
-0.03
-0.03
-0.025
-0.005
0.01
0.025
0.015
0.015
0.025
0.05
0.075
0.09
0.085
0.1
0.12
0.15
0.16
0.165
0.175
0.175
0.18
0.185
0.19
0.18
0.16
0.13
0.105
0.105
0.095
0.07
0.05
0.015
0.0
-0.005
-0.015
-0.02
-0.04
-0.07
-0.07
-0.08
-0.065
-0.085
-0.095
-0.11
-0.11
-0.11
-0.095
-0.095
-0.115
-0.13
-0.125
-0.13
-0.1
-0.115
-0.115
-0.145
-0.13
-0.13
-0.115
-0.11
-0.14
-0.15
-0.145
-0.13
-0.115
-0.115
-0.125
-0.14
-0.135
-0.125
-0.105
-0.1
-0.125
-0.15
-0.135
-0.135
-0.1
-0.115
-0.13
-0.12
-0.135
-0.125
-0.095
-0.11
-0.125
-0.135
-0.15
-0.115
-0.12
-0.11
-0.135
-0.135
-0.135
-0.135
-0.115
-0.12
-0.13
-0.145
-0.145
-0.135
-0.12
-0.11
-0.145
-0.145
-0.15
-0.15
-0.125
-0.12
-0.14
-0.14
-0.145
-0.13
-0.115
-0.12
-0.13
-0.145
-0.15
-0.135
-0.125
-0.125
-0.15
-0.155
-0.16
-0.145
-0.12
-0.13
-0.135
-0.16
-0.165
-0.15
-0.12
-0.145
-0.145
-0.17
-0.155
-0.145
-0.13
-0.115
-0.11
-0.115
-0.115
-0.1
-0.09
-0.09
-0.085
-0.105
-0.1
-0.075
-0.055
-0.055
-0.06
-0.07
-0.065
-0.06
-0.055
-0.05
-0.065
-0.09
-0.085
-0.095
-0.08
-0.085
-0.1
-0.11
-0.12
-0.125
-0.11
-0.12
-0.105
-0.13
-0.14
-0.135
-0.125
-0.12
-0.145
-0.155
-0.15
-0.155
-0.17
-0.175
-0.18
-0.195
-0.19
-0.185
-0.155
-0.18
-0.175
-0.195
-0.205
-0.205
-0.19
-0.175
-0.195
-0.205
-0.21
-0.195
-0.18
-0.185
-0.205
-0.205
-0.21
-0.22
-0.205
-0.195
-0.195
-0.215
-0.215
-0.21
-0.185
-0.185
-0.195
-0.2
-0.21
-0.195
-0.17
-0.16
-0.175
-0.195
-0.18
-0.175
-0.16
-0.155
-0.155
-0.145
-0.13
-0.1
-0.035
0.01
0.06
0.125
0.21
0.285
0.34
0.365
0.33
0.26
0.195
0.14
0.135
0.175
0.245
0.335
0.44
0.575
0.695
0.775
0.83
0.86
0.83
0.76
0.655
0.555
0.46
0.37
0.265
0.155
0.06
-0.065
-0.19
-0.315
-0.39
-0.445
-0.45
-0.465
-0.45
-0.435
-0.41
-0.365
-0.315
-0.305
-0.3
-0.305
-0.3
-0.29
-0.27
-0.29
-0.295
-0.32
-0.315
-0.3
-0.275
-0.27
-0.28
-0.285
-0.285
-0.27
-0.275
-0.275
-0.285
-0.295
-0.295
-0.285
-0.27
-0.27
-0.275
-0.305
-0.28
-0.255
-0.255
-0.25
-0.25
-0.255
-0.26
-0.245
-0.22
-0.215
-0.215
-0.22
-0.25
-0.215
-0.205
-0.185
-0.175
-0.2
-0.175
-0.16
-0.135
-0.12
-0.125
-0.125
-0.105
-0.09
-0.07
-0.055
-0.05
-0.055
-0.045
-0.02
0.015
0.02
0.015
0.01
0.025
0.055
0.075
0.095
0.095
0.085
0.105
0.12
0.155
0.135
0.125
0.105
0.095
0.07
0.07
0.045
0.02
-0.01
-0.025
-0.035
-0.05
-0.07
-0.095
-0.135
-0.14
-0.155
-0.13
-0.14
-0.16
-0.17
-0.19
-0.185
-0.185
-0.185
-0.19
-0.2
-0.205
-0.205
-0.2
-0.2
-0.21
-0.225
-0.235
-0.225
-0.22
-0.215
-0.215
-0.23
-0.235
-0.22
-0.215
-0.2
-0.235
-0.245
-0.24
-0.22
-0.225
-0.22
-0.235
-0.235
-0.24
-0.23
-0.215
-0.21
-0.24
-0.25
-0.26
-0.25
-0.245
-0.23
-0.235
-0.255
-0.25
-0.235
-0.22
-0.225
-0.215
-0.255
-0.26
-0.255
-0.24
-0.235
-0.24
-0.26
-0.26
-0.24
-0.22
-0.225
-0.245
-0.27
-0.26
-0.24
-0.235
-0.215
-0.245
-0.265
-0.26
-0.245
-0.23
-0.245
-0.26
-0.25
-0.255
-0.235
-0.23
-0.23
-0.255
-0.265
-0.24
-0.225
-0.2
-0.19
-0.2
-0.2
-0.21
-0.2
-0.195
-0.185
-0.195
-0.195
-0.195
-0.175
-0.145
-0.145
-0.145
-0.165
-0.175
-0.165
-0.16
-0.175
-0.175
-0.175
-0.195
-0.19
-0.18
-0.19
-0.22
-0.215
-0.22
-0.22
-0.2
-0.2
-0.225
-0.25
-0.25
-0.245
-0.235
-0.23
-0.28
-0.285
-0.29
-0.285
-0.26
-0.255
-0.25
-0.27
-0.28
-0.285
-0.27
-0.265
-0.29
-0.285
-0.29
-0.28
-0.245
-0.265
-0.275
-0.29
-0.295
-0.285
-0.285
-0.27
-0.27
-0.295
-0.285
-0.29
-0.265
-0.27
-0.275
-0.275
-0.285
-0.27
-0.26
-0.26
-0.27
-0.28
-0.28
-0.265
-0.245
-0.245
-0.25
-0.275
-0.26
-0.205
-0.185
-0.155
-0.14
-0.12
-0.075
-0.005
0.07
0.13
0.175
0.24
0.25
0.275
0.245
0.185
0.12
0.05
0.08
0.145
0.225
0.335
0.435
0.53
0.635
0.72
0.765
0.73
0.635
0.51
0.415
0.34
0.28
0.2
0.08
-0.05
-0.145
-0.24
-0.315
-0.395
-0.46
-0.5
-0.495
-0.485
-0.435
-0.4
-0.39
-0.385
-0.37
-0.34
-0.31
-0.32
-0.33
-0.355
-0.355
-0.33
-0.31
-0.315
-0.32
-0.34
-0.33
-0.33
-0.31
-0.31
-0.31
-0.33
-0.335
-0.31
-0.305
-0.315
-0.315
-0.325
-0.325
-0.315
-0.285
-0.295
-0.295
-0.305
-0.305
-0.285
-0.27
-0.27
-0.26
-0.27
-0.27
-0.245
-0.235
-0.23
-0.235
-0.23
-0.23
-0.205
-0.2
-0.195
-0.185
-0.185
-0.185
-0.17
-0.15
-0.145
-0.135
-0.135
-0.125
-0.11
-0.075
-0.055
-0.065
-0.06
-0.07
-0.04
-0.015
-0.01
0.005
-0.005
0.005
0.035
0.065
0.07
0.085
0.095
0.11
0.11
0.125
0.125
0.115
0.095
0.085
0.08
0.075
0.055
0.02
-0.01
-0.05
-0.06
-0.055
-0.06
-0.085
-0.115
-0.12
-0.125
-0.12
-0.125
-0.15
-0.16
-0.175
-0.175
-0.16
-0.165
-0.185
-0.195
-0.2
-0.19
-0.19
-0.19
-0.2
-0.22
-0.22
-0.205
-0.19
-0.2
-0.195
-0.205
-0.225
-0.205
-0.185
-0.205
-0.2
-0.215
-0.21
-0.205
-0.19
-0.19
-0.195
-0.215
-0.21
-0.2
-0.19
-0.19
-0.195
-0.21
-0.205
-0.215
-0.19
-0.185
-0.195
-0.21
-0.215
-0.195
-0.185
-0.19
-0.195
-0.205
-0.225
-0.205
-0.195
-0.2
-0.205
-0.22
-0.22
-0.215
-0.195
-0.2
-0.21
-0.22
-0.24
-0.225
-0.2
-0.205
-0.22
-0.23
-0.23
-0.225
-0.21
-0.22
-0.22
-0.235
-0.235
-0.23
-0.22
-0.225
-0.23
-0.245
-0.26
-0.245
-0.22
-0.215
-0.22
-0.235
-0.23
-0.215
-0.2
-0.19
-0.18
-0.195
-0.19
-0.18
-0.17
-0.17
-0.195
-0.175
-0.175
-0.16
-0.145
-0.13
-0.14
-0.155
-0.16
-0.155
-0.155
-0.15
-0.16
-0.185
-0.19
-0.2
-0.205
-0.205
-0.22
-0.23
-0.225
-0.225
-0.205
-0.215
-0.24
-0.25
-0.265
-0.245
-0.235
-0.27
-0.28
-0.29
-0.31
-0.28
-0.27
-0.25
-0.27
-0.295
-0.29
-0.28
-0.275
-0.27
-0.285
-0.3
-0.32
-0.3
-0.28
-0.28
-0.3
-0.32
-0.315
-0.305
-0.29
-0.29
-0.295
-0.305
-0.315
-0.31
-0.295
-0.29
-0.295
-0.3
-0.305
-0.31
-0.285
-0.275
-0.29
-0.31
-0.305
-0.295
-0.28
-0.27
-0.27
-0.28
-0.265
-0.245
-0.215
-0.195
-0.18
-0.15
-0.1
-0.01
0.08
0.165
0.21
0.22
0.215
0.18
0.11
0.065
0.035
0.065
0.15
0.285
0.435
0.58
0.67
0.74
0.79
0.78
0.705
0.605
0.48
0.375
0.28
0.18
0.075
-0.06
-0.215
-0.335
-0.435
-0.495
-0.525
-0.545
-0.56
-0.545
-0.52
-0.455
-0.43
-0.38
-0.375
-0.38
-0.38
-0.385
-0.375
-0.375
-0.365
-0.38
-0.39
-0.365
-0.35
-0.36
-0.37
-0.375
-0.38
-0.375
-0.35
-0.355
-0.37
-0.385
-0.38
-0.36
-0.345
-0.345
-0.365
-0.365
-0.365
-0.35
-0.325
-0.335
-0.335
-0.345
-0.34
-0.335
-0.32
-0.31
-0.305
-0.32
-0.325
-0.3
-0.27
-0.275
-0.29
-0.295
-0.28
-0.25
-0.225
-0.22
-0.225
-0.23
-0.22
-0.185
-0.185
-0.165
-0.16
-0.15
-0.15
-0.13
-0.125
-0.095
-0.085
-0.085
-0.095
-0.07
-0.045
-0.025
-0.015
-0.035
-0.015
-0.005
0.025
0.035
0.04
0.02
0.0
-0.015
-0.005
-0.03
-0.045
-0.085
-0.12
-0.13
-0.13
-0.16
-0.185
-0.215
-0.235
-0.24
-0.235
-0.245
-0.265
-0.3
-0.315
-0.305
-0.295
-0.3
-0.315
-0.34
-0.33
-0.335
-0.315
-0.32
-0.34
-0.35
-0.37
-0.36
-0.335
-0.33
-0.34
-0.36
-0.365
-0.355
-0.355
-0.355
-0.36
-0.365
-0.37
-0.365
-0.36
-0.35
-0.36
-0.37
-0.37
-0.375
-0.375
-0.365
-0.38
-0.395
-0.395
-0.39
-0.37
-0.375
-0.385
-0.405
-0.395
-0.38
-0.38
-0.39
-0.395
-0.385
-0.395
-0.39
-0.385
-0.375
-0.395
-0.395
-0.415
-0.4
-0.38
-0.38
-0.39
-0.4
-0.405
-0.41
-0.4
-0.39
-0.395
-0.415
-0.415
-0.41
-0.4
-0.395
-0.41
-0.415
-0.44
-0.425
-0.425
-0.415
-0.425
-0.42
-0.415
-0.4
-0.395
-0.385
-0.39
-0.4
-0.405
-0.39
-0.37
-0.365
-0.365
-0.375
-0.37
-0.345
-0.33
-0.325
-0.335
-0.36
-0.37
-0.36
-0.35
-0.355
-0.37
-0.38
-0.395
-0.385
-0.385
-0.39
-0.395
-0.41
-0.42
-0.42
-0.415
-0.415
-0.44
-0.455
-0.47
-0.465
-0.45
-0.445
-0.45
-0.465
-0.46
-0.47
-0.46
-0.445
-0.445
-0.465
-0.47
-0.45
-0.45
-0.44
-0.45
-0.47
-0.465
-0.47
-0.465
-0.46
-0.48
-0.49
-0.475
-0.47
-0.455
-0.44
-0.465
-0.475
-0.47
-0.45
-0.44
-0.455
-0.45
-0.46
-0.46
-0.455
-0.44
-0.42
-0.435
-0.45
-0.44
-0.44
-0.415
-0.4
-0.405
-0.405
-0.39
-0.355
-0.305
-0.255
-0.215
-0.16
-0.08
0.0
0.085
0.14
0.16
0.14
0.1
0.035
-0.02
-0.065
-0.04
0.0
0.095
0.215
0.36
0.455
0.55
0.605
0.62
0.595
0.51
0.415
0.31
0.205
0.095
0.01
-0.09
-0.195
-0.33
-0.435
-0.51
-0.58
-0.585
-0.61
-0.62
-0.6
-0.59
-0.565
-0.53
-0.525
-0.515
-0.525
-0.525
-0.525
-0.505
-0.505
-0.505
-0.525
-0.53
-0.525
-0.515
-0.51
-0.515
-0.525
-0.525
-0.51
-0.505
-0.515
-0.525
-0.515
-0.525
-0.505
-0.495
-0.49
-0.495
-0.5
-0.51
-0.495
-0.465
-0.465
-0.465
-0.48
-0.47
-0.45
-0.44
-0.435
-0.435
-0.45
-0.445
-0.435
-0.42
-0.385
-0.4
-0.395
-0.385
-0.375
-0.355
-0.35
-0.345
-0.33
-0.33
-0.31
-0.275
-0.255
-0.25
-0.255
-0.235
-0.21
-0.185
-0.165
-0.16
-0.17
-0.145
-0.12
-0.085
-0.07
-0.055
-0.07
-0.07
-0.045
-0.03
-0.005
-0.015
-0.045
-0.04
-0.045
-0.055
-0.07
-0.095
-0.125
-0.16
-0.16
-0.16
-0.19
-0.205
-0.245
-0.26
-0.25
-0.25
-0.265
-0.265
-0.28
-0.295
-0.295
-0.29
-0.285
-0.3
-0.32
-0.315
-0.31
-0.295
-0.305
-0.305
-0.315
-0.325
-0.32
-0.31
-0.31
-0.33
-0.33
-0.34
-0.325
-0.305
-0.305
-0.315
-0.31
-0.315
-0.32
-0.29
-0.3
-0.305
-0.315
-0.33
-0.3
-0.28
-0.275
-0.29
-0.305
-0.315
-0.295
-0.27
-0.265
-0.285
-0.29
-0.285
-0.285
-0.275
-0.275
-0.275
-0.295
-0.285
-0.28
-0.265
-0.255
-0.27
-0.28
-0.285
-0.27
-0.26
-0.255
-0.265
-0.275
-0.285
-0.27
-0.255
-0.245
-0.255
-0.27
-0.28
-0.255
-0.255
-0.25
-0.26
-0.29
-0.285
-0.27
-0.275
-0.25
-0.265
-0.28
-0.28
-0.275
-0.26
-0.26
-0.26
-0.265
-0.27
-0.25
-0.235
-0.23
-0.25
-0.24
-0.245
-0.23
-0.21
-0.2
-0.205
-0.21
-0.205
-0.2
-0.19
-0.185
-0.215
-0.22
-0.24
-0.225
-0.22
-0.235
-0.245
-0.26
-0.265
-0.27
-0.26
-0.255
-0.26
-0.265
-0.285
-0.295
-0.265
-0.265
-0.3
-0.335
-0.33
-0.32
-0.29
-0.28
-0.3
-0.325
-0.325
-0.32
-0.305
-0.3
-0.32
-0.36
-0.375
-0.365
-0.345
-0.35
-0.38
-0.42
-0.415
-0.4
-0.38
-0.33
-0.3
-0.295
-0.31
-0.325
-0.315
-0.31
-0.315
-0.335
-0.33
-0.335
-0.325
-0.295
-0.295
-0.285
-0.295
-0.29
-0.275
-0.28
-0.3
-0.3
-0.235
-0.095
0.055
0.185
0.265
0.28
0.255
0.185
0.09
0.035
0.045
0.095
0.195
0.345
0.525
0.665
0.735
0.75
0.68
0.575
0.465
0.38
0.295
0.185
0.055
-0.05
-0.185
-0.3
-0.395
-0.49
-0.52
-0.505
-0.465
-0.425
-0.405
-0.385
-0.38
-0.355
-0.345
-0.34
-0.39
-0.4
-0.4
-0.385
-0.36
-0.35
-0.35
-0.37
-0.365
-0.33
-0.305
-0.29
-0.295
-0.315
-0.325
-0.31
-0.305
-0.28
-0.275
-0.285
-0.295
-0.275
-0.26
-0.245
-0.26
-0.275
-0.27
-0.265
-0.26
-0.255
-0.28
-0.295
-0.285
-0.23
-0.195
-0.155
-0.16
-0.19
-0.185
-0.165
-0.15
-0.13
-0.145
-0.14
-0.135
-0.125
-0.07
-0.055
-0.045
-0.045
-0.05
-0.05
-0.025
-0.005
0.005
0.0
0.005
0.025
0.045
0.06
0.08
0.08
0.07
0.075
0.075
0.085
0.09
0.095
0.105
0.11
0.115
0.115
0.09
0.055
0.02
0.01
-0.015
-0.045
-0.07
-0.11
-0.13
-0.125
-0.13
-0.15
-0.165
-0.18
-0.18
-0.175
-0.18
-0.205
-0.25
-0.31
-0.29
-0.26
-0.235
-0.24
-0.23
-0.225
-0.215
-0.205
-0.21
-0.215
-0.235
-0.24
-0.24
-0.25
-0.235
-0.23
-0.25
-0.27
-0.275
-0.265
-0.26
-0.245
-0.245
-0.24
-0.225
-0.22
-0.235
-0.25
-0.285
-0.3
-0.285
-0.275
-0.26
-0.245
-0.265
-0.29
-0.28
-0.29
-0.29
-0.265
-0.265
-0.255
-0.245
-0.23
-0.215
-0.21
-0.21
-0.23
-0.255
-0.26
-0.25
-0.25
-0.245
-0.26
-0.26
-0.25
-0.23
-0.235
-0.25
-0.255
-0.27
-0.25
-0.235
-0.23
-0.24
-0.255
-0.28
-0.275
-0.27
-0.265
-0.25
-0.24
-0.245
-0.225
-0.24
-0.265
-0.305
-0.3
-0.285
-0.275
-0.24
-0.24
-0.255
-0.275
-0.275
-0.27
-0.25
-0.23
-0.255
-0.265
-0.265
-0.255
-0.24
-0.22
-0.21
-0.22
-0.225
-0.21
-0.195
-0.18
-0.175
-0.185
-0.205
-0.2
-0.19
-0.185
-0.185
-0.21
-0.2
-0.2
-0.175
-0.18
-0.185
-0.195
-0.22
-0.22
-0.2
-0.205
-0.21
-0.23
-0.265
-0.265
-0.25
-0.24
-0.235
-0.25
-0.25
-0.265
-0.245
-0.22
-0.24
-0.26
-0.27
-0.29
-0.255
-0.255
-0.26
-0.275
-0.295
-0.305
-0.315
-0.305
-0.31
-0.315
-0.325
-0.305
-0.29
-0.3
-0.31
-0.31
-0.315
-0.3
-0.305
-0.3
-0.295
-0.31
-0.31
-0.32
-0.305
-0.3
-0.32
-0.32
-0.315
-0.315
-0.3
-0.29
-0.3
-0.305
-0.31
-0.3
-0.295
-0.28
-0.29
-0.305
-0.305
-0.29
-0.275
-0.275
-0.285
-0.3
-0.305
-0.28
-0.25
-0.22
-0.22
-0.205
-0.165
-0.1
-0.03
-0.015
-0.04
-0.07
-0.115
-0.155
-0.225
-0.32
-0.405
-0.45
-0.435
-0.365
-0.25
-0.105
0.04
0.155
0.245
0.3
0.33
0.275
0.165
0.04
-0.06
-0.13
-0.23
-0.33
-0.43
-0.53
-0.57
-0.595
-0.57
-0.54
-0.51
-0.47
-0.44
-0.4
-0.355
-0.33
-0.31
-0.32
-0.31
-0.3
-0.275
-0.275
-0.275
-0.3
-0.305
-0.3
-0.27
-0.255
-0.265
-0.27
-0.27
-0.245
-0.255
-0.24
-0.25
-0.27
-0.285
-0.285
-0.275
-0.25
-0.25
-0.24
-0.245
-0.235
-0.215
-0.205
-0.215
-0.225
-0.235
-0.225
-0.19
-0.165
-0.185
-0.19
-0.17
-0.155
-0.13
-0.12
-0.115
-0.12
-0.11
-0.095
-0.08
-0.065
-0.06
-0.06
-0.06
-0.025
0.0
0.015
0.0
0.005
0.005
0.025
0.035
0.06
0.06
0.065
0.06
0.075
0.095
0.115
0.105
0.1
0.095
0.11
0.125
0.13
0.125
0.105
0.085
0.085
0.09
0.085
0.055
0.025
0.005
-0.015
-0.015
-0.04
-0.06
-0.095
-0.13
-0.15
-0.175
-0.2
-0.205
-0.24
-0.24
-0.24
-0.235
-0.24
-0.26
-0.275
-0.285
-0.295
-0.295
-0.3
-0.315
-0.34
-0.34
-0.33
-0.34
-0.335
-0.36
-0.365
-0.37
-0.37
-0.35
-0.325
-0.335
-0.345
-0.365
-0.365
-0.345
-0.34
-0.355
-0.345
-0.36
-0.345
-0.34
-0.33
-0.325
-0.34
-0.355
-0.34
-0.34
-0.32
-0.32
-0.335
-0.355
-0.335
-0.33
-0.31
-0.325
-0.33
-0.325
-0.33
-0.32
-0.32
-0.335
-0.345
-0.35
-0.335
-0.32
-0.315
-0.305
-0.335
-0.335
-0.325
-0.325
-0.305
-0.315
-0.355
-0.35
-0.345
-0.335
-0.315
-0.325
-0.36
-0.38
-0.385
-0.345
-0.325
-0.33
-0.345
-0.345
-0.34
-0.325
-0.31
-0.335
-0.355
-0.36
-0.35
-0.33
-0.34
-0.33
-0.34
-0.34
-0.325
-0.315
-0.3
-0.315
-0.32
-0.33
-0.32
-0.31
-0.285
-0.29
-0.3
-0.295
-0.275
-0.265
-0.27
-0.26
-0.265
-0.27
-0.275
-0.27
-0.25
-0.265
-0.3
-0.3
-0.285
-0.28
-0.285
-0.295
-0.31
-0.325
-0.32
-0.31
-0.3
-0.315
-0.325
-0.34
-0.325
-0.335
-0.33
-0.34
-0.375
-0.385
-0.395
-0.38
-0.355
-0.335
-0.34
-0.355
-0.345
-0.34
-0.335
-0.345
-0.355
-0.375
-0.355
-0.345
-0.33
-0.34
-0.345
-0.35
-0.35
-0.33
-0.315
-0.32
-0.325
-0.345
-0.345
-0.325
-0.31
-0.32
-0.325
-0.33
-0.32
-0.305
-0.3
-0.315
-0.325
-0.325
-0.33
-0.305
-0.3
-0.295
-0.3
-0.305
-0.305
-0.285
-0.27
-0.285
-0.31
-0.315
-0.29
-0.26
-0.23
-0.205
-0.2
-0.165
-0.1
-0.03
0.015
0.035
0.045
0.045
0.045
0.05
0.005
-0.015
-0.065
-0.155
-0.225
-0.315
-0.395
-0.445
-0.465
-0.395
-0.255
-0.105
0.015
0.095
0.14
0.15
0.105
0.04
-0.025
-0.1
-0.17
-0.24
-0.28
-0.32
-0.34
-0.405
-0.445
-0.495
-0.5
-0.5
-0.495
-0.48
-0.46
-0.425
-0.37
-0.34
-0.32
-0.295
-0.3
-0.32
-0.3
-0.28
-0.265
-0.265
-0.28
-0.28
-0.26
-0.24
-0.245
-0.24
-0.24
-0.25
-0.245
-0.225
-0.205
-0.21
-0.225
-0.205
-0.2
-0.18
-0.175
-0.175
-0.16
-0.17
-0.16
-0.13
-0.12
-0.12
-0.135
-0.135
-0.125
-0.095
-0.08
-0.065
-0.07
-0.07
-0.05
-0.025
-0.005
0.0
-0.005
-0.005
0.03
0.04
0.05
0.06
0.045
0.055
0.08
0.09
0.1
0.105
0.1
0.1
0.115
0.135
0.155
0.16
0.16
0.15
0.16
0.175
0.19
0.18
0.155
0.12
0.095
0.105
0.07
0.035
0.0
-0.025
-0.045
-0.05
-0.06
-0.085
-0.115
-0.155
-0.14
-0.14
-0.145
-0.165
-0.18
-0.2
-0.195
-0.185
-0.19
-0.22
-0.215
-0.225
-0.22
-0.195
-0.19
-0.21
-0.23
-0.235
-0.23
-0.22
-0.2
-0.205
-0.225
-0.235
-0.22
-0.215
-0.21
-0.225
-0.23
-0.235
-0.215
-0.21
-0.2
-0.215
-0.225
-0.24
-0.21
-0.19
-0.185
-0.21
-0.215
-0.21
-0.205
-0.19
-0.18
-0.195
-0.205
-0.2
-0.195
-0.185
-0.165
-0.165
-0.18
-0.18
-0.2
-0.185
-0.195
-0.195
-0.2
-0.2
-0.205
-0.19
-0.195
-0.195
-0.21
-0.215
-0.21
-0.21
-0.19
-0.205
-0.23
-0.235
-0.225
-0.21
-0.215
-0.22
-0.225
-0.24
-0.23
-0.22
-0.195
-0.21
-0.23
-0.24
-0.235
-0.225
-0.21
-0.21
-0.235
-0.245
-0.22
-0.2
-0.195
-0.19
-0.2
-0.2
-0.19
-0.18
-0.18
-0.18
-0.19
-0.195
-0.185
-0.165
-0.155
-0.15
-0.15
-0.155
-0.16
-0.135
-0.125
-0.135
-0.15
-0.16
-0.155
-0.145
-0.15
-0.17
-0.205
-0.21
-0.205
-0.19
-0.185
-0.21
-0.23
-0.235
-0.225
-0.215
-0.215
-0.23
-0.25
-0.235
-0.23
-0.235
-0.225
-0.24
-0.28
-0.27
-0.26
-0.23
-0.24
-0.265
-0.27
-0.275
-0.26
-0.245
-0.235
-0.255
-0.255
-0.26
-0.26
-0.255
-0.24
-0.24
-0.265
-0.275
-0.27
-0.265
-0.25
-0.25
-0.265
-0.275
-0.265
-0.25
-0.245
-0.255
-0.27
-0.275
-0.265
-0.25
-0.245
-0.25
-0.26
-0.275
-0.265
-0.245
-0.23
-0.24
-0.24
-0.23
-0.215
-0.18
-0.15
-0.115
-0.095
-0.05
0.02
0.065
0.1
0.09
0.07
0.01
-0.06
-0.11
-0.175
-0.215
-0.205
-0.14
-0.035
0.1
0.24
0.35
0.44
0.51
0.55
0.56
0.485
0.365
0.25
0.155
0.065
0.0
-0.08
-0.18
-0.28
-0.365
-0.435
-0.475
-0.525
-0.535
-0.54
-0.535
-0.49
-0.44
-0.39
-0.345
-0.33
-0.335
-0.305
-0.27
-0.27
-0.27
-0.285
-0.29
-0.285
-0.265
-0.25
-0.255
-0.265
-0.265
-0.25
-0.24
-0.235
-0.235
-0.25
-0.265
-0.245
-0.225
-0.22
-0.21
-0.245
-0.23
-0.215
-0.195
-0.195
-0.185
-0.205
-0.205
-0.195
-0.17
-0.145
-0.145
-0.175
-0.155
-0.135
-0.12
-0.095
-0.095
-0.095
-0.095
-0.08
-0.045
-0.03
-0.03
-0.045
-0.03
-0.01
0.025
0.035
0.055
0.055
0.065
0.065
0.09
0.11
0.115
0.11
0.12
0.14
0.155
0.17
0.185
0.175
0.175
0.19
0.205
0.22
0.22
0.195
0.165
0.14
0.13
0.135
0.105
0.055
0.015
0.01
-0.005
-0.015
-0.03
-0.06
-0.08
-0.09
-0.105
-0.115
-0.12
-0.145
-0.155
-0.165
-0.165
-0.175
-0.17
-0.2
-0.21
-0.19
-0.175
-0.17
-0.18
-0.2
-0.2
-0.205
-0.195
-0.19
-0.205
-0.2
-0.205
-0.205
-0.2
-0.19
-0.19
-0.2
-0.2
-0.19
-0.19
-0.18
-0.185
-0.19
-0.19
-0.185
-0.185
-0.18
-0.185
-0.21
-0.205
-0.2
-0.18
-0.17
-0.175
-0.185
-0.195
-0.19
-0.18
-0.165
-0.18
-0.19
-0.21
-0.195
-0.18
-0.17
-0.185
-0.195
-0.22
-0.205
-0.205
-0.175
-0.185
-0.195
-0.21
-0.2
-0.2
-0.19
-0.195
-0.205
-0.205
-0.21
-0.19
-0.185
-0.18
-0.21
-0.21
-0.215
-0.205
-0.2
-0.205
-0.215
-0.22
-0.21
-0.2
-0.195
-0.195
-0.205
-0.215
-0.195
-0.175
-0.15
-0.155
-0.175
-0.18
-0.16
-0.145
-0.135
-0.145
-0.16
-0.17
-0.135
-0.115
-0.105
-0.09
-0.13
-0.135
-0.14
-0.13
-0.115
-0.135
-0.145
-0.175
-0.17
-0.175
-0.165
-0.17
-0.185
-0.21
-0.2
-0.18
-0.175
-0.18
-0.2
-0.22
-0.22
-0.205
-0.195
-0.205
-0.235
-0.26
-0.255
-0.23
-0.215
-0.22
-0.23
-0.25
-0.25
-0.235
-0.23
-0.23
-0.255
-0.27
-0.25
-0.245
-0.245
-0.245
-0.25
-0.27
-0.26
-0.245
-0.235
-0.24
-0.27
-0.265
-0.255
-0.25
-0.235
-0.235
-0.25
-0.26
-0.255
-0.25
-0.225
-0.22
-0.24
-0.255
-0.25
-0.23
-0.215
-0.215
-0.225
-0.21
-0.205
-0.17
-0.145
-0.125
-0.085
-0.04
0.03
0.09
0.12
0.125
0.085
0.03
-0.05
-0.14
-0.205
-0.23
-0.2
-0.125
0.01
0.15
0.305
0.415
0.5
0.56
0.565
0.49
0.4
0.26
0.14
0.035
-0.065
-0.175
-0.27
-0.38
-0.47
-0.54
-0.55
-0.55
-0.52
-0.5
-0.465
-0.44
-0.37
-0.32
-0.265
-0.275
-0.27
-0.28
-0.265
-0.265
-0.255
-0.245
-0.25
-0.27
-0.255
-0.245
-0.235
-0.225
-0.24
-0.245
-0.23
-0.23
-0.21
-0.21
-0.22
-0.25
-0.235
-0.2
-0.185
-0.195
-0.2
-0.205
-0.205
-0.185
-0.175
-0.165
-0.18
-0.18
-0.18
-0.15
-0.135
-0.14
-0.135
-0.135
-0.115
-0.1
-0.08
-0.09
-0.11
-0.1
-0.085
-0.075
-0.04
-0.03
-0.04
-0.03
-0.015
0.015
0.035
0.035
0.035
0.05
0.06
0.095
0.1
0.105
0.09
0.09
0.105
0.125
0.145
0.135
0.135
0.12
0.125
0.14
0.165
0.145
0.11
0.085
0.085
0.06
0.06
0.025
-0.015
-0.03
-0.04
-0.065
-0.08
-0.095
-0.12
-0.165
-0.175
-0.165
-0.185
-0.19
-0.215
-0.24
-0.245
-0.23
-0.235
-0.23
-0.245
-0.255
-0.26
-0.26
-0.26
-0.275
-0.3
-0.3
-0.295
-0.28
-0.28
-0.275
-0.305
-0.305
-0.3
-0.29
-0.295
-0.295
-0.3
-0.32
-0.315
-0.305
-0.285
-0.29
-0.31
-0.32
-0.325
-0.31
-0.285
-0.275
-0.295
-0.315
-0.305
-0.3
-0.29
-0.295
-0.3
-0.315
-0.3
-0.29
-0.295
-0.295
-0.305
-0.33
-0.325
-0.295
-0.295
-0.3
-0.305
-0.33
-0.325
-0.315
-0.305
-0.3
-0.32
-0.335
-0.325
-0.32
-0.31
-0.315
-0.34
-0.34
-0.335
-0.335
-0.34
-0.33
-0.34
-0.34
-0.33
-0.33
-0.32
-0.335
-0.35
-0.35
-0.35
-0.34
-0.33
-0.35
-0.36
-0.375
-0.36
-0.35
-0.35
-0.36
-0.365
-0.37
