MLII
-0.245
-0.245
-0.245
-0.245
-0.245
-0.245
-0.245
-0.245
-0.24
-0.235
-0.195
-0.18
-0.155
-0.135
-0.125
-0.14
-0.165
-0.17
-0.185
-0.195
-0.195
-0.19
-0.17
-0.165
-0.165
-0.17
-0.165
-0.175
-0.18
-0.195
-0.195
-0.195
-0.215
-0.215
-0.2
-0.185
-0.175
-0.175
-0.175
-0.19
-0.2
-0.205
-0.2
-0.2
-0.185
-0.2
-0.2
-0.2
-0.19
-0.16
-0.145
-0.14
-0.16
-0.175
-0.205
-0.225
-0.255
-0.26
-0.23
-0.185
-0.165
-0.16
-0.17
-0.2
-0.22
-0.215
-0.215
-0.215
-0.19
-0.19
-0.19
-0.195
-0.195
-0.195
-0.19
-0.19
-0.185
-0.185
-0.18
-0.17
-0.185
-0.2
-0.215
-0.21
-0.185
-0.15
-0.145
-0.17
-0.2
-0.225
-0.24
-0.225
-0.205
-0.2
-0.195
-0.195
-0.205
-0.205
-0.205
-0.21
-0.21
-0.19
-0.175
-0.175
-0.175
-0.175
-0.18
-0.18
-0.2
-0.235
-0.25
-0.255
-0.24
-0.215
-0.185
-0.17
-0.18
-0.175
-0.185
-0.185
-0.185
-0.19
-0.22
-0.22
-0.22
-0.205
-0.185
-0.195
-0.21
-0.215
-0.215
-0.195
-0.175
-0.18
-0.21
-0.245
-0.26
-0.265
-0.26
-0.255
-0.235
-0.21
-0.2
-0.175
-0.175
-0.17
-0.195
-0.215
-0.23
-0.235
-0.23
-0.22
-0.195
-0.175
-0.155
-0.15
-0.15
-0.17
-0.18
-0.21
-0.245
-0.25
-0.27
-0.275
-0.27
-0.255
-0.235
-0.2
-0.155
-0.12
-0.115
-0.125
-0.175
-0.225
-0.265
-0.29
-0.29
-0.3
-0.27
-0.235
-0.205
-0.19
-0.185
-0.18
-0.17
-0.145
-0.145
-0.145
-0.17
-0.21
-0.25
-0.28
-0.275
-0.275
-0.245
-0.225
-0.195
-0.175
-0.19
-0.195
-0.19
-0.195
-0.22
-0.22
-0.23
-0.22
-0.22
-0.22
-0.2
-0.205
-0.21
-0.22
-0.235
-0.25
-0.265
-0.25
-0.24
-0.225
-0.2
-0.2
-0.19
-0.185
-0.195
-0.195
-0.2
-0.205
-0.22
-0.215
-0.225
-0.23
-0.23
-0.23
-0.205
-0.21
-0.215
-0.22
-0.235
-0.245
-0.235
-0.23
-0.195
-0.18
-0.17
-0.17
-0.165
-0.17
-0.18
-0.21
-0.23
-0.23
-0.235
-0.24
-0.235
-0.245
-0.245
-0.24
-0.24
-0.22
-0.21
-0.195
-0.195
-0.21
-0.215
-0.215
-0.195
-0.17
-0.14
-0.145
-0.175
-0.215
-0.25
-0.28
-0.275
-0.265
-0.235
-0.205
-0.2
-0.195
-0.2
-0.205
-0.21
-0.22
-0.235
-0.255
-0.26
-0.245
-0.225
-0.21
-0.2
-0.19
-0.185
-0.2
-0.225
-0.225
-0.23
-0.225
-0.2
-0.19
-0.175
-0.165
-0.19
-0.205
-0.215
-0.23
-0.21
-0.18
-0.17
-0.18
-0.205
-0.235
-0.255
-0.25
-0.225
-0.195
-0.175
-0.165
-0.155
-0.175
-0.2
-0.215
-0.22
-0.205
-0.2
-0.19
-0.175
-0.175
-0.185
-0.195
-0.205
-0.21
-0.215
-0.215
-0.215
-0.195
-0.19
-0.195
-0.195
-0.215
-0.2
-0.195
-0.185
-0.175
-0.185
-0.19
-0.21
-0.21
-0.235
-0.24
-0.22
-0.205
-0.18
-0.155
-0.145
-0.155
-0.19
-0.23
-0.265
-0.275
-0.24
-0.22
-0.21
-0.19
-0.18
-0.205
-0.2
-0.21
-0.185
-0.19
-0.175
-0.175
-0.195
-0.19
-0.18
-0.145
-0.125
-0.125
-0.16
-0.2
-0.25
-0.305
-0.325
-0.33
-0.265
-0.235
-0.19
-0.17
-0.16
-0.17
-0.185
-0.195
-0.2
-0.205
-0.2
-0.2
-0.18
-0.175
-0.16
-0.15
-0.16
-0.2
-0.23
-0.23
-0.195
-0.175
-0.165
-0.18
-0.205
-0.225
-0.235
-0.22
-0.195
-0.145
-0.085
-0.045
-0.04
-0.095
-0.145
-0.19
-0.205
-0.19
-0.165
-0.135
-0.1
-0.095
-0.095
-0.095
-0.125
-0.145
-0.165
-0.185
-0.19
-0.175
-0.165
-0.15
-0.15
-0.15
-0.155
-0.155
-0.15
-0.145
-0.14
-0.135
-0.145
-0.145
-0.145
-0.145
-0.145
-0.155
-0.185
-0.21
-0.245
-0.27
-0.285
-0.275
-0.265
-0.245
-0.22
-0.205
-0.195
-0.225
-0.245
-0.24
-0.24
-0.245
-0.235
-0.205
-0.185
-0.19
-0.195
-0.205
-0.215
-0.225
-0.225
-0.22
-0.21
-0.195
-0.185
-0.175
-0.175
-0.19
-0.19
-0.19
-0.16
-0.13
-0.09
-0.045
-0.02
0.01
0.05
0.115
0.21
0.295
0.34
0.31
0.19
-0.01
-0.22
-0.39
-0.48
-0.52
-0.505
-0.48
-0.44
-0.42
-0.4
-0.405
-0.425
-0.45
-0.48
-0.5
-0.5
-0.485
-0.455
-0.405
-0.35
-0.335
-0.305
-0.325
-0.355
-0.395
-0.405
-0.41
-0.4
-0.375
-0.355
-0.355
-0.32
-0.295
-0.26
-0.22
-0.18
-0.18
-0.175
-0.185
-0.195
-0.22
-0.23
-0.225
-0.22
-0.21
-0.21
-0.205
-0.195
-0.19
-0.195
-0.18
-0.195
-0.205
-0.225
-0.22
-0.195
-0.185
-0.165
-0.17
-0.16
-0.18
-0.19
-0.195
-0.18
-0.15
-0.115
-0.1
-0.11
-0.155
-0.2
-0.215
-0.205
-0.19
-0.17
-0.14
-0.125
-0.135
-0.14
-0.145
-0.145
-0.13
-0.12
-0.125
-0.125
-0.11
-0.105
-0.095
-0.095
-0.09
-0.08
-0.085
-0.08
-0.095
-0.075
-0.05
-0.03
-0.01
-0.005
0.0
-0.01
-0.02
-0.035
-0.03
-0.03
0.005
0.03
0.05
0.065
0.06
0.05
0.02
0.005
-0.01
-0.015
-0.02
0.0
0.015
0.035
0.055
0.065
0.06
0.04
0.01
-0.03
-0.04
-0.04
-0.035
-0.025
-0.02
-0.025
-0.055
-0.065
-0.095
-0.105
-0.115
-0.1
-0.105
-0.115
-0.135
-0.145
-0.16
-0.165
-0.18
-0.165
-0.15
-0.155
-0.15
-0.155
-0.175
-0.205
-0.215
-0.23
-0.225
-0.21
-0.19
-0.175
-0.17
-0.165
-0.17
-0.18
-0.18
-0.19
-0.205
-0.185
-0.17
-0.155
-0.155
-0.135
-0.135
-0.125
-0.105
-0.105
-0.11
-0.115
-0.125
-0.14
-0.145
-0.145
-0.145
-0.13
-0.12
-0.12
-0.12
-0.12
-0.13
-0.16
-0.175
-0.17
-0.155
-0.135
-0.09
-0.06
-0.06
-0.1
-0.12
-0.13
-0.15
-0.15
-0.15
-0.13
-0.125
-0.12
-0.115
-0.12
-0.13
-0.14
-0.155
-0.17
-0.155
-0.155
-0.145
-0.13
-0.125
-0.12
-0.13
-0.115
-0.11
-0.11
-0.1
-0.1
-0.11
-0.145
-0.17
-0.175
-0.165
-0.125
-0.115
-0.115
-0.135
-0.15
-0.15
-0.13
-0.115
-0.105
-0.1
-0.085
-0.075
-0.045
0.01
0.11
0.235
0.365
0.47
0.495
0.44
0.26
0.02
-0.195
-0.355
-0.435
-0.44
-0.415
-0.39
-0.34
-0.305
-0.305
-0.32
-0.355
-0.395
-0.4
-0.38
-0.35
-0.3
-0.255
-0.255
-0.28
-0.325
-0.385
-0.41
-0.415
-0.395
-0.35
-0.3
-0.285
-0.265
-0.26
-0.255
-0.24
-0.215
-0.18
-0.15
-0.15
-0.155
-0.145
-0.165
-0.15
-0.135
-0.125
-0.105
-0.095
-0.1
-0.095
-0.105
-0.125
-0.145
-0.165
-0.155
-0.155
-0.14
-0.12
-0.125
-0.11
-0.135
-0.145
-0.15
-0.14
-0.125
-0.12
-0.13
-0.135
-0.14
-0.125
-0.125
-0.1
-0.085
-0.085
-0.11
-0.105
-0.115
-0.11
-0.085
-0.055
-0.045
-0.045
-0.03
-0.02
-0.02
-0.025
-0.01
-0.01
-0.01
0.005
0.01
0.03
0.055
0.08
0.1
0.105
0.12
0.125
0.1
0.075
0.055
0.06
0.07
0.095
0.13
0.135
0.13
0.125
0.12
0.13
0.125
0.125
0.12
0.1
0.085
0.06
0.045
0.025
0.035
0.03
0.03
0.015
-0.005
-0.025
-0.03
-0.03
-0.06
-0.1
-0.125
-0.12
-0.105
-0.09
-0.09
-0.1
-0.13
-0.145
-0.155
-0.155
-0.16
-0.145
-0.135
-0.135
-0.13
-0.135
-0.145
-0.155
-0.17
-0.185
-0.195
-0.185
-0.185
-0.17
-0.165
-0.155
-0.145
-0.125
-0.13
-0.145
-0.16
-0.165
-0.17
-0.16
-0.16
-0.15
-0.135
-0.115
-0.13
-0.135
-0.18
-0.19
-0.2
-0.205
-0.195
-0.195
-0.17
-0.17
-0.165
-0.135
-0.135
-0.12
-0.115
-0.11
-0.12
-0.145
-0.165
-0.195
-0.21
-0.23
-0.215
-0.21
-0.18
-0.16
-0.13
-0.1
-0.09
-0.11
-0.11
-0.125
-0.13
-0.12
-0.115
-0.115
-0.115
-0.135
-0.15
-0.17
-0.205
-0.21
-0.215
-0.225
-0.225
-0.225
-0.21
-0.195
-0.18
-0.155
-0.16
-0.155
-0.16
-0.18
-0.18
-0.165
-0.155
-0.145
-0.135
-0.12
-0.12
-0.125
-0.13
-0.14
-0.13
-0.125
-0.12
-0.125
-0.14
-0.15
-0.16
-0.135
-0.125
-0.115
-0.145
-0.18
-0.185
-0.185
-0.17
-0.155
-0.155
-0.14
-0.125
-0.135
-0.13
-0.135
-0.15
-0.15
-0.145
-0.125
-0.095
-0.05
-0.015
0.03
0.115
0.195
0.395
0.485
0.55
0.54
0.44
0.235
-0.03
-0.29
-0.465
-0.555
-0.58
-0.545
-0.495
-0.44
-0.39
-0.35
-0.33
-0.33
-0.36
-0.41
-0.455
-0.47
-0.465
-0.43
-0.39
-0.345
-0.32
-0.33
-0.34
-0.355
-0.37
-0.365
-0.335
-0.32
-0.285
-0.26
-0.26
-0.265
-0.27
-0.28
-0.28
-0.265
-0.23
-0.2
-0.17
-0.14
-0.125
-0.115
-0.095
-0.07
-0.05
-0.07
-0.105
-0.165
-0.24
-0.29
-0.29
-0.26
-0.21
-0.16
-0.13
-0.12
-0.125
-0.115
-0.125
-0.125
-0.12
-0.11
-0.12
-0.13
-0.135
-0.14
-0.165
-0.145
-0.145
-0.115
-0.115
-0.11
-0.105
-0.105
-0.1
-0.095
-0.11
-0.125
-0.135
-0.125
-0.11
-0.095
-0.09
-0.065
-0.05
-0.04
-0.025
-0.01
0.025
0.03
0.05
0.07
0.065
0.05
0.055
0.055
0.05
0.045
0.05
0.06
0.075
0.085
0.085
0.11
0.085
0.08
0.07
0.07
0.085
0.085
0.085
0.07
0.07
0.045
0.02
0.01
0.0
-0.005
-0.005
-0.045
-0.08
-0.1
-0.11
-0.115
-0.08
-0.065
-0.05
-0.04
-0.06
-0.09
-0.15
-0.195
-0.215
-0.225
-0.215
-0.19
-0.15
-0.13
-0.12
-0.125
-0.14
-0.15
-0.17
-0.185
-0.19
-0.18
-0.19
-0.195
-0.195
-0.21
-0.205
-0.19
-0.17
-0.16
-0.155
-0.15
-0.17
-0.195
-0.2
-0.22
-0.205
-0.19
-0.16
-0.125
-0.1
-0.085
-0.095
-0.125
-0.155
-0.165
-0.165
-0.175
-0.15
-0.14
-0.13
-0.105
-0.12
-0.12
-0.145
-0.16
-0.185
-0.2
-0.185
-0.19
-0.19
-0.18
-0.16
-0.135
-0.14
-0.13
-0.145
-0.17
-0.21
-0.22
-0.19
-0.175
-0.155
-0.145
-0.155
-0.165
-0.16
-0.17
-0.175
-0.165
-0.15
-0.145
-0.155
-0.17
-0.2
-0.22
-0.25
-0.25
-0.26
-0.25
-0.23
-0.205
-0.18
-0.155
-0.125
-0.1
-0.095
-0.11
-0.165
-0.215
-0.25
-0.27
-0.275
-0.25
-0.235
-0.205
-0.19
-0.185
-0.185
-0.185
-0.195
-0.205
-0.2
-0.185
-0.18
-0.155
-0.105
-0.045
-0.005
-0.045
-0.15
-0.265
-0.375
-0.41
-0.375
-0.32
-0.25
-0.205
-0.17
-0.17
-0.165
-0.17
-0.16
-0.165
-0.14
-0.12
-0.09
-0.095
-0.095
-0.125
-0.17
-0.235
-0.31
-0.34
-0.34
-0.305
-0.255
-0.205
-0.165
-0.145
-0.14
-0.15
-0.165
-0.165
-0.16
-0.165
-0.165
-0.17
-0.195
-0.21
-0.22
-0.22
-0.21
-0.2
-0.195
-0.18
-0.175
-0.17
-0.16
-0.16
-0.17
-0.175
-0.19
-0.2
-0.21
-0.215
-0.215
-0.205
-0.2
-0.205
-0.205
-0.21
-0.215
-0.21
-0.2
-0.19
-0.18
-0.16
-0.15
-0.135
-0.14
-0.165
-0.2
-0.25
-0.265
-0.28
-0.265
-0.245
-0.23
-0.2
-0.195
-0.195
-0.195
-0.195
-0.185
-0.175
-0.17
-0.155
-0.155
-0.155
-0.185
-0.2
-0.2
-0.195
-0.17
-0.145
-0.115
-0.12
-0.13
-0.145
-0.16
-0.18
-0.225
-0.27
-0.295
-0.29
-0.285
-0.23
-0.195
-0.175
-0.17
-0.175
-0.2
-0.215
-0.245
-0.24
-0.21
-0.19
-0.155
-0.13
-0.12
-0.135
-0.16
-0.195
-0.215
-0.24
-0.24
-0.225
-0.205
-0.19
-0.2
-0.21
-0.2
-0.21
-0.22
-0.23
-0.235
-0.235
-0.245
-0.21
-0.19
-0.165
-0.15
-0.15
-0.16
-0.17
-0.175
-0.19
-0.215
-0.245
-0.255
-0.26
-0.255
-0.24
-0.215
-0.195
-0.185
-0.165
-0.175
-0.205
-0.26
-0.285
-0.3
-0.31
-0.305
-0.265
-0.235
-0.195
-0.18
-0.18
-0.21
-0.24
-0.265
-0.28
-0.265
-0.255
-0.225
-0.215
-0.195
-0.19
-0.175
-0.195
-0.21
-0.215
-0.235
-0.23
-0.235
-0.24
-0.25
-0.26
-0.255
-0.255
-0.245
-0.245
-0.25
-0.24
-0.225
-0.215
-0.215
-0.22
-0.225
-0.235
-0.24
-0.235
-0.22
-0.21
-0.22
-0.21
-0.225
-0.225
-0.255
-0.26
-0.25
-0.24
-0.2
-0.175
-0.16
-0.185
-0.22
-0.235
-0.255
-0.285
-0.305
-0.295
-0.27
-0.25
-0.22
-0.21
-0.2
-0.22
-0.225
-0.23
-0.22
-0.22
-0.23
-0.245
-0.24
-0.23
-0.225
-0.21
-0.215
-0.24
-0.255
-0.26
-0.26
-0.25
-0.245
-0.25
-0.265
-0.285
-0.27
-0.25
-0.22
-0.195
-0.185
-0.18
-0.205
-0.21
-0.225
-0.24
-0.25
-0.26
-0.25
-0.23
-0.205
-0.19
-0.2
-0.2
-0.21
-0.24
-0.255
-0.26
-0.245
-0.225
-0.22
-0.21
-0.205
-0.205
-0.21
-0.215
-0.245
-0.265
-0.28
-0.265
-0.245
-0.225
-0.205
-0.215
-0.23
-0.24
-0.235
-0.2
-0.185
-0.17
-0.175
-0.205
-0.235
-0.27
-0.27
-0.26
-0.255
-0.245
-0.225
-0.2
-0.19
-0.18
-0.19
-0.2
-0.205
-0.205
-0.205
-0.195
-0.19
-0.19
-0.205
-0.21
-0.225
-0.24
-0.245
-0.245
-0.225
-0.22
-0.19
-0.175
-0.17
-0.17
-0.19
-0.205
-0.235
-0.235
-0.235
-0.215
-0.195
-0.18
-0.155
-0.135
-0.135
-0.13
-0.14
-0.165
-0.17
-0.17
-0.165
-0.145
-0.135
-0.105
-0.1
-0.1
-0.13
-0.16
-0.2
-0.225
-0.245
-0.25
-0.24
-0.22
-0.185
-0.175
-0.145
-0.12
-0.105
-0.11
-0.135
-0.175
-0.23
-0.28
-0.325
-0.345
-0.345
-0.325
-0.3
-0.27
-0.24
-0.225
-0.205
-0.205
-0.2
-0.205
-0.22
-0.24
-0.265
-0.285
-0.285
-0.285
-0.28
-0.25
-0.235
-0.235
-0.22
-0.205
-0.16
-0.14
-0.13
-0.17
-0.225
-0.28
-0.32
-0.32
-0.32
-0.275
-0.24
-0.2
-0.16
-0.145
-0.095
-0.02
0.08
0.21
0.34
0.44
0.525
0.555
0.505
0.355
0.095
-0.19
-0.42
-0.575
-0.625
-0.62
-0.585
-0.54
-0.505
-0.485
-0.475
-0.505
-0.52
-0.545
-0.54
-0.525
-0.5
-0.46
-0.42
-0.395
-0.385
-0.365
-0.375
-0.395
-0.44
-0.48
-0.505
-0.51
-0.485
-0.445
-0.395
-0.34
-0.3
-0.25
-0.215
-0.195
-0.205
-0.215
-0.25
-0.28
-0.295
-0.29
-0.265
-0.23
-0.195
-0.185
-0.185
-0.21
-0.235
-0.26
-0.28
-0.3
-0.32
-0.315
-0.285
-0.26
-0.24
-0.225
-0.205
-0.19
-0.185
-0.195
-0.215
-0.245
-0.245
-0.255
-0.235
-0.195
-0.175
-0.15
-0.125
-0.135
-0.13
-0.145
-0.175
-0.19
-0.185
-0.185
-0.175
-0.16
-0.19
-0.195
-0.18
-0.165
-0.13
-0.105
-0.095
-0.1
-0.1
-0.105
-0.09
-0.1
-0.105
-0.105
-0.1
-0.075
-0.05
-0.035
-0.015
0.005
0.025
0.02
0.03
0.03
0.01
-0.005
-0.02
-0.025
-0.03
-0.02
0.0
0.035
0.07
0.085
0.075
0.04
-0.02
-0.065
-0.085
-0.085
-0.085
-0.07
-0.04
-0.03
-0.03
-0.04
-0.045
-0.03
-0.03
-0.045
-0.06
-0.09
-0.145
-0.165
-0.19
-0.185
-0.18
-0.175
-0.18
-0.185
-0.19
-0.18
-0.165
-0.16
-0.18
-0.21
-0.255
-0.26
-0.265
-0.255
-0.24
-0.245
-0.27
-0.275
-0.275
-0.25
-0.245
-0.25
-0.245
-0.245
-0.23
-0.22
-0.195
-0.17
-0.16
-0.15
-0.165
-0.175
-0.175
-0.175
-0.2
-0.215
-0.215
-0.205
-0.2
-0.2
-0.185
-0.175
-0.175
-0.16
-0.16
-0.155
-0.185
-0.215
-0.225
-0.215
-0.18
-0.155
-0.14
-0.135
-0.135
-0.145
-0.16
-0.18
-0.175
-0.18
-0.17
-0.17
-0.165
-0.145
-0.145
-0.17
-0.21
-0.22
-0.215
-0.205
-0.19
-0.175
-0.185
-0.195
-0.21
-0.215
-0.2
-0.185
-0.17
-0.165
-0.17
-0.19
-0.215
-0.235
-0.23
-0.21
-0.185
-0.165
-0.175
-0.18
-0.185
-0.2
-0.2
-0.2
-0.19
-0.185
-0.18
-0.16
-0.115
-0.04
0.06
0.18
0.315
0.44
0.53
0.56
0.515
0.33
0.065
-0.205
-0.405
-0.525
-0.57
-0.555
-0.535
-0.505
-0.48
-0.45
-0.445
-0.435
-0.455
-0.49
-0.495
-0.49
-0.455
-0.42
-0.39
-0.375
-0.375
-0.405
-0.42
-0.42
-0.405
-0.405
-0.39
-0.38
-0.35
-0.325
-0.28
-0.23
-0.18
-0.135
-0.145
-0.165
-0.185
-0.2
-0.21
-0.195
-0.205
-0.205
-0.21
-0.22
-0.245
-0.235
-0.215
-0.19
-0.18
-0.175
-0.16
-0.175
-0.19
-0.2
-0.205
-0.205
-0.205
-0.2
-0.185
-0.16
-0.135
-0.12
-0.11
-0.14
-0.14
-0.155
-0.16
-0.175
-0.175
-0.185
-0.2
-0.185
-0.15
-0.125
-0.09
-0.085
-0.08
-0.095
-0.12
-0.125
-0.12
-0.1
-0.085
-0.05
-0.015
0.02
0.05
0.065
0.045
0.015
-0.02
-0.05
-0.045
-0.04
0.0
0.015
0.045
0.045
0.055
0.055
0.06
0.055
0.045
0.04
0.045
0.05
0.045
0.02
-0.005
-0.02
-0.035
-0.045
-0.07
-0.065
-0.085
-0.105
-0.135
-0.15
-0.15
-0.145
-0.135
-0.135
-0.135
-0.13
-0.145
-0.175
-0.215
-0.255
-0.27
-0.3
-0.295
-0.28
-0.255
-0.24
-0.21
-0.185
-0.175
-0.14
-0.12
-0.085
-0.105
-0.15
-0.26
-0.365
-0.43
-0.42
-0.375
-0.305
-0.23
-0.19
-0.175
-0.18
-0.2
-0.235
-0.28
-0.275
-0.28
-0.26
-0.24
-0.235
-0.24
-0.25
-0.265
-0.28
-0.28
-0.265
-0.245
-0.24
-0.26
-0.27
-0.275
-0.265
-0.225
-0.195
-0.175
-0.195
-0.225
-0.265
-0.285
-0.285
-0.275
-0.235
-0.22
-0.21
-0.215
-0.21
-0.195
-0.19
-0.185
-0.17
-0.175
-0.195
-0.21
-0.22
-0.26
-0.285
-0.285
-0.27
-0.245
-0.225
-0.225
-0.23
-0.23
-0.215
-0.22
-0.215
-0.23
-0.245
-0.255
-0.255
-0.255
-0.24
-0.23
-0.235
-0.23
-0.22
-0.23
-0.245
-0.26
-0.27
-0.255
-0.255
-0.235
-0.22
-0.21
-0.21
-0.2
-0.22
-0.22
-0.225
-0.225
-0.25
-0.25
-0.265
-0.265
-0.255
-0.225
-0.205
-0.195
-0.19
-0.19
-0.19
-0.18
-0.165
-0.12
-0.08
-0.02
0.05
0.16
0.25
0.355
0.38
0.335
0.195
-0.04
-0.29
-0.485
-0.59
-0.615
-0.59
-0.54
-0.5
-0.465
-0.435
-0.415
-0.4
-0.39
-0.395
-0.415
-0.44
-0.48
-0.5
-0.505
-0.515
-0.515
-0.51
-0.49
-0.465
-0.415
-0.39
-0.37
-0.35
-0.34
-0.315
-0.315
-0.31
-0.285
-0.28
-0.26
-0.265
-0.265
-0.26
-0.25
-0.24
-0.235
-0.24
-0.225
-0.21
-0.185
-0.16
-0.155
-0.16
-0.165
-0.185
-0.235
-0.285
-0.335
-0.33
-0.31
-0.285
-0.24
-0.21
-0.185
-0.17
-0.175
-0.175
-0.18
-0.185
-0.205
-0.22
-0.235
-0.25
-0.23
-0.225
-0.2
-0.185
-0.175
-0.15
-0.115
-0.09
-0.055
-0.065
-0.125
-0.185
-0.23
-0.25
-0.235
-0.2
-0.145
-0.105
-0.065
-0.045
-0.055
-0.06
-0.03
-0.01
0.02
0.025
0.035
0.02
-0.02
-0.05
-0.075
-0.08
-0.07
-0.04
-0.02
0.015
0.05
0.075
0.075
0.04
0.025
0.01
-0.01
-0.015
-0.035
-0.065
-0.105
-0.135
-0.13
-0.13
-0.125
-0.105
-0.095
-0.1
-0.12
-0.12
-0.125
-0.115
-0.1
-0.09
-0.095
-0.135
-0.205
-0.28
-0.325
-0.33
-0.31
-0.28
-0.25
-0.225
-0.215
-0.215
-0.2
-0.215
-0.19
-0.16
-0.11
-0.095
-0.145
-0.215
-0.325
-0.395
-0.405
-0.375
-0.31
-0.255
-0.21
-0.19
-0.18
-0.165
-0.19
-0.205
-0.21
-0.25
-0.26
-0.28
-0.275
-0.265
-0.255
-0.225
-0.195
-0.19
-0.2
-0.22
-0.215
-0.22
-0.235
-0.23
-0.21
-0.2
-0.205
-0.215
-0.215
-0.22
-0.22
-0.21
-0.215
-0.22
-0.24
-0.25
-0.25
-0.25
-0.245
-0.235
-0.225
-0.21
-0.195
-0.195
-0.195
-0.21
-0.23
-0.245
-0.255
-0.255
-0.265
-0.25
-0.245
-0.25
-0.24
-0.23
-0.215
-0.215
-0.225
-0.235
-0.24
-0.25
-0.23
-0.245
-0.235
-0.25
-0.26
-0.265
-0.245
-0.235
-0.24
-0.25
-0.245
-0.265
-0.275
-0.255
-0.235
-0.22
-0.225
-0.23
-0.245
-0.25
-0.25
-0.265
-0.285
-0.3
-0.29
-0.28
-0.245
-0.24
-0.245
-0.24
-0.245
-0.24
-0.25
-0.26
-0.26
-0.26
-0.245
-0.245
-0.25
-0.24
-0.265
-0.26
-0.255
-0.25
-0.235
-0.225
-0.235
-0.25
-0.27
-0.275
-0.265
-0.23
-0.215
-0.205
-0.22
-0.235
-0.27
-0.27
-0.26
-0.255
-0.24
-0.245
-0.25
-0.26
-0.25
-0.255
-0.25
-0.235
-0.23
-0.245
-0.24
-0.255
-0.25
-0.245
-0.24
-0.225
-0.225
-0.2
-0.21
-0.205
-0.245
-0.27
-0.295
-0.3
-0.29
-0.255
-0.235
-0.22
-0.225
-0.22
-0.24
-0.24
-0.225
-0.235
-0.24
-0.255
-0.24
-0.255
-0.25
-0.245
-0.255
-0.285
-0.3
-0.3
-0.285
-0.275
-0.255
-0.24
-0.23
-0.23
-0.24
-0.25
-0.26
-0.25
-0.25
-0.245
-0.25
-0.25
-0.24
-0.24
-0.235
-0.245
-0.25
-0.25
-0.255
-0.25
-0.23
-0.215
-0.21
-0.23
-0.26
-0.275
-0.295
-0.285
-0.265
-0.255
-0.24
-0.23
-0.24
-0.25
-0.27
-0.285
-0.285
-0.28
-0.26
-0.24
-0.2
-0.19
-0.2
-0.22
-0.245
-0.27
-0.27
-0.265
-0.255
-0.255
-0.285
-0.28
-0.27
-0.25
-0.225
-0.21
-0.19
-0.19
-0.215
-0.26
-0.28
-0.29
-0.295
-0.295
-0.27
-0.255
-0.265
-0.265
-0.27
-0.295
-0.29
-0.285
-0.275
-0.255
-0.215
-0.19
-0.16
-0.155
-0.175
-0.185
-0.22
-0.25
-0.285
-0.305
-0.31
-0.32
-0.305
-0.275
-0.26
-0.24
-0.24
-0.23
-0.245
-0.235
-0.22
-0.205
-0.18
-0.18
-0.165
-0.205
-0.235
-0.26
-0.28
-0.285
-0.295
-0.27
-0.27
-0.255
-0.24
-0.235
-0.205
-0.205
-0.205
-0.22
-0.225
-0.24
-0.25
-0.24
-0.245
-0.23
-0.225
-0.22
-0.23
-0.245
-0.255
-0.26
-0.245
-0.235
-0.225
-0.225
-0.225
-0.21
-0.225
-0.235
-0.235
-0.235
-0.24
-0.25
-0.24
-0.24
-0.22
-0.22
-0.26
-0.275
-0.295
-0.305
-0.31
-0.275
-0.245
-0.23
-0.2
-0.185
-0.19
-0.185
-0.185
-0.21
-0.2
-0.19
-0.195
-0.2
-0.215
-0.26
-0.285
-0.29
-0.29
-0.27
-0.255
-0.24
-0.235
-0.235
-0.245
-0.24
-0.225
-0.21
-0.22
-0.215
-0.215
-0.22
-0.22
-0.23
-0.235
-0.23
-0.215
-0.22
-0.2
-0.215
-0.22
-0.225
-0.245
-0.235
-0.215
-0.19
-0.185
-0.19
-0.22
-0.235
-0.255
-0.245
-0.235
-0.255
-0.255
-0.255
-0.25
-0.23
-0.22
-0.215
-0.205
-0.22
-0.24
-0.25
-0.265
-0.26
-0.225
-0.215
-0.21
-0.2
-0.21
-0.23
-0.24
-0.25
-0.255
-0.235
-0.225
-0.205
-0.205
-0.225
-0.22
-0.225
-0.215
-0.225
-0.22
-0.225
-0.23
-0.225
-0.245
-0.265
-0.27
-0.25
-0.235
-0.23
-0.225
-0.225
-0.235
-0.235
-0.245
-0.245
-0.25
-0.225
-0.215
-0.2
-0.2
-0.19
-0.22
-0.245
-0.255
-0.25
-0.23
-0.2
-0.175
-0.16
-0.17
-0.205
-0.24
-0.265
-0.27
-0.265
-0.24
-0.22
-0.2
-0.18
-0.16
-0.145
-0.155
-0.12
-0.105
-0.12
-0.145
-0.185
-0.205
-0.2
-0.2
-0.18
-0.165
-0.175
-0.17
-0.175
-0.17
-0.18
-0.195
-0.195
-0.19
-0.18
-0.18
-0.18
-0.175
-0.19
-0.2
-0.2
-0.205
-0.21
-0.21
-0.19
-0.2
-0.21
-0.205
-0.22
-0.24
-0.245
-0.26
-0.265
-0.28
-0.29
-0.27
-0.25
-0.24
-0.23
-0.23
-0.235
-0.245
-0.26
-0.26
-0.26
-0.245
-0.245
-0.215
-0.21
-0.21
-0.215
-0.23
-0.235
-0.23
-0.22
-0.21
-0.2
-0.22
-0.235
-0.255
-0.25
-0.24
-0.22
-0.195
-0.17
-0.16
-0.115
-0.075
-0.015
0.075
0.165
0.26
0.29
0.24
0.09
-0.115
-0.31
-0.455
-0.525
-0.545
-0.535
-0.52
-0.485
-0.46
-0.44
-0.43
-0.445
-0.46
-0.475
-0.47
-0.455
-0.435
-0.43
-0.43
-0.45
-0.44
-0.44
-0.435
-0.425
-0.41
-0.415
-0.425
-0.415
-0.395
-0.38
-0.36
-0.33
-0.305
-0.28
-0.245
-0.22
-0.2
-0.205
-0.225
-0.24
-0.255
-0.245
-0.24
-0.225
-0.215
-0.225
-0.24
-0.245
-0.26
-0.28
-0.275
-0.275
-0.26
-0.25
-0.235
-0.225
-0.205
-0.2
-0.195
-0.195
-0.195
-0.195
-0.205
-0.22
-0.225
-0.215
-0.205
-0.18
-0.165
-0.175
-0.2
-0.235
-0.265
-0.25
-0.23
-0.2
-0.175
-0.155
-0.15
-0.155
-0.135
-0.12
-0.1
-0.1
-0.105
-0.125
-0.15
-0.135
-0.12
-0.085
-0.07
-0.055
-0.04
-0.05
-0.04
-0.045
-0.035
-0.025
-0.025
-0.03
-0.035
-0.045
-0.045
-0.065
-0.06
-0.06
-0.065
-0.04
-0.01
0.015
0.03
0.04
0.01
-0.015
-0.05
-0.08
-0.085
-0.09
-0.07
-0.055
-0.05
-0.05
-0.08
-0.08
-0.08
-0.055
-0.06
-0.08
-0.11
-0.14
-0.145
-0.135
-0.125
-0.12
-0.135
-0.14
-0.185
-0.215
-0.235
-0.245
-0.245
-0.235
-0.24
-0.25
-0.26
-0.245
-0.23
-0.2
-0.2
-0.23
-0.265
-0.285
-0.29
-0.275
-0.255
-0.22
-0.19
-0.17
-0.16
-0.145
-0.15
-0.16
-0.165
-0.175
-0.155
-0.155
-0.145
-0.15
-0.145
-0.15
-0.15
-0.155
-0.17
-0.17
-0.19
-0.21
-0.22
-0.23
-0.2
-0.185
-0.16
-0.16
-0.175
-0.195
-0.195
-0.185
-0.19
-0.175
-0.175
-0.18
-0.185
-0.185
-0.175
-0.18
-0.17
-0.15
-0.145
-0.145
-0.155
-0.185
-0.21
-0.2
-0.19
-0.175
-0.155
-0.14
-0.14
-0.14
-0.16
-0.19
-0.225
-0.245
-0.25
-0.235
-0.22
-0.205
-0.18
-0.145
-0.155
-0.15
-0.165
-0.175
-0.19
-0.19
-0.215
-0.195
-0.17
-0.145
-0.105
-0.04
0.015
0.095
0.185
0.245
0.28
0.225
0.115
-0.055
-0.22
-0.36
-0.44
-0.465
-0.495
-0.48
-0.46
-0.42
-0.385
-0.365
-0.36
-0.375
-0.405
-0.44
-0.45
-0.425
-0.4
-0.365
-0.375
-0.39
-0.42
-0.435
-0.425
-0.42
-0.41
-0.37
-0.325
-0.305
-0.29
-0.28
-0.28
-0.295
-0.305
-0.31
-0.285
-0.25
-0.21
-0.19
-0.16
-0.16
-0.165
-0.185
-0.215
-0.225
-0.25
-0.25
-0.24
-0.235
-0.22
-0.215
-0.2
-0.2
-0.195
-0.185
-0.18
-0.18
-0.175
-0.19
-0.17
-0.16
-0.17
-0.19
-0.21
-0.215
-0.235
-0.22
-0.2
-0.185
-0.175
-0.175
-0.185
-0.19
-0.19
-0.185
-0.185
-0.16
-0.145
-0.13
-0.135
-0.135
-0.13
-0.13
-0.125
-0.115
-0.1
-0.08
-0.08
-0.07
-0.07
-0.055
-0.065
-0.06
-0.06
-0.06
-0.055
-0.03
-0.015
0.015
0.02
0.03
0.01
-0.025
-0.04
-0.055
-0.06
-0.065
-0.055
-0.06
-0.035
-0.035
-0.03
-0.04
-0.04
-0.055
-0.095
-0.115
-0.13
-0.14
-0.14
-0.13
-0.135
-0.145
-0.135
-0.14
-0.17
-0.165
-0.175
-0.19
-0.2
-0.21
-0.22
-0.23
-0.23
-0.21
-0.19
-0.2
-0.225
-0.25
-0.27
-0.285
-0.265
-0.25
-0.215
-0.195
-0.18
-0.145
-0.145
-0.14
-0.14
-0.16
-0.21
-0.24
-0.285
-0.29
-0.275
-0.255
-0.235
-0.2
-0.185
-0.155
-0.15
-0.14
-0.145
-0.18
-0.225
-0.245
-0.275
-0.26
-0.24
-0.225
-0.205
-0.19
-0.185
-0.205
-0.18
-0.18
-0.19
-0.195
-0.205
-0.205
-0.21
-0.2
-0.185
-0.185
-0.215
-0.22
-0.225
-0.225
-0.23
-0.245
-0.24
-0.235
-0.22
-0.2
-0.195
-0.215
-0.235
-0.24
-0.25
-0.245
-0.23
-0.235
-0.225
-0.245
-0.23
-0.23
-0.23
-0.23
-0.235
-0.235
-0.245
-0.25
-0.26
-0.255
-0.26
-0.24
-0.225
-0.205
-0.205
-0.21
-0.23
-0.235
-0.26
-0.275
-0.28
-0.28
-0.265
-0.235
-0.225
-0.205
-0.21
-0.2
-0.21
-0.21
-0.225
-0.25
-0.26
-0.27
-0.26
-0.255
-0.24
-0.245
-0.25
-0.25
-0.255
-0.23
-0.23
-0.225
-0.24
-0.245
-0.245
-0.235
-0.22
-0.225
-0.245
-0.255
-0.255
-0.26
-0.255
-0.255
-0.265
-0.265
-0.255
-0.245
-0.22
-0.205
-0.205
-0.225
-0.25
-0.265
-0.275
-0.28
-0.27
-0.265
-0.255
-0.25
-0.26
-0.27
-0.255
-0.23
-0.22
-0.225
-0.225
-0.235
-0.255
-0.265
-0.255
-0.245
-0.23
-0.23
-0.225
-0.24
-0.25
-0.265
-0.285
-0.285
-0.295
-0.285
-0.275
-0.255
-0.24
-0.24
-0.24
-0.25
-0.26
-0.265
-0.275
-0.26
-0.26
-0.235
-0.235
-0.25
-0.265
-0.275
-0.285
-0.28
-0.275
-0.26
-0.255
-0.24
-0.225
-0.215
-0.225
-0.24
-0.24
-0.26
-0.29
-0.305
-0.3
-0.295
-0.265
-0.25
-0.255
-0.27
-0.27
-0.26
-0.26
-0.245
-0.21
-0.205
-0.22
-0.25
-0.28
-0.285
-0.285
-0.25
-0.22
-0.215
-0.215
-0.26
-0.295
-0.32
-0.32
-0.3
-0.265
-0.245
-0.23
-0.225
-0.225
-0.245
-0.26
-0.275
-0.26
-0.245
-0.245
-0.225
-0.23
-0.245
-0.245
-0.27
-0.285
-0.285
-0.285
-0.255
-0.235
-0.23
-0.22
-0.215
-0.23
-0.235
-0.235
-0.245
-0.265
-0.28
-0.275
-0.27
-0.27
-0.26
-0.27
-0.265
-0.255
-0.25
-0.25
-0.25
-0.25
-0.27
-0.265
-0.26
-0.25
-0.235
-0.23
-0.22
-0.23
-0.245
-0.28
-0.29
-0.285
-0.285
-0.285
-0.31
-0.285
-0.27
-0.26
-0.25
-0.245
-0.265
-0.255
-0.27
-0.28
-0.285
-0.295
-0.29
-0.285
-0.26
-0.27
-0.265
-0.265
-0.29
-0.275
-0.29
-0.295
-0.28
-0.28
-0.27
-0.265
-0.245
-0.23
-0.225
-0.235
-0.27
-0.3
-0.32
-0.315
-0.295
-0.285
-0.275
-0.27
-0.255
-0.25
-0.24
-0.26
-0.275
-0.275
-0.295
-0.295
-0.29
-0.29
-0.27
-0.255
-0.25
-0.24
-0.245
-0.25
-0.255
-0.275
-0.28
-0.295
-0.29
-0.295
-0.29
-0.285
-0.28
-0.265
-0.265
-0.265
-0.27
-0.28
-0.295
-0.295
-0.3
-0.295
-0.285
-0.27
-0.255
-0.235
-0.22
-0.205
-0.215
-0.23
-0.265
-0.3
-0.31
-0.315
-0.305
-0.28
-0.265
-0.275
-0.27
-0.3
-0.315
-0.325
-0.315
-0.28
-0.26
-0.23
-0.215
-0.205
-0.23
-0.255
-0.275
-0.295
-0.29
-0.26
-0.245
-0.22
-0.205
-0.225
-0.23
-0.24
-0.22
-0.2
-0.16
-0.155
-0.15
-0.17
-0.2
-0.23
-0.27
-0.27
-0.27
-0.25
-0.22
-0.2
-0.195
-0.19
-0.18
-0.185
-0.195
-0.225
-0.24
-0.24
-0.23
-0.225
-0.22
-0.235
-0.245
-0.25
-0.25
-0.245
-0.255
-0.265
-0.28
-0.3
-0.295
-0.29
-0.28
-0.29
-0.27
-0.28
-0.275
-0.3
-0.325
-0.325
-0.33
-0.31
-0.285
-0.26
-0.24
-0.245
-0.25
-0.285
-0.29
-0.305
-0.31
-0.305
-0.28
-0.255
-0.25
-0.235
-0.235
-0.26
-0.27
-0.295
-0.3
-0.3
-0.27
-0.27
-0.255
-0.24
-0.23
-0.195
-0.16
-0.125
-0.05
0.01
0.08
0.125
0.15
0.135
0.07
-0.025
-0.16
-0.305
-0.445
-0.525
-0.56
-0.565
-0.565
-0.555
-0.57
-0.555
-0.54
-0.51
-0.51
-0.49
-0.495
-0.52
-0.515
-0.49
-0.455
-0.42
-0.425
-0.415
-0.42
-0.435
-0.47
-0.465
-0.465
-0.445
-0.42
-0.395
-0.39
-0.365
-0.34
-0.31
-0.29
-0.275
-0.275
-0.27
-0.26
-0.245
-0.235
-0.215
-0.215
-0.22
-0.225
-0.23
-0.25
-0.27
-0.285
-0.29
-0.275
-0.27
-0.265
-0.28
-0.285
-0.29
-0.295
-0.275
-0.275
-0.26
-0.245
-0.23
-0.23
-0.21
-0.195
-0.2
-0.205
-0.215
-0.225
-0.235
-0.255
-0.275
-0.265
-0.245
-0.225
-0.21
-0.19
-0.195
-0.195
-0.185
-0.175
-0.145
-0.115
-0.11
-0.14
-0.16
-0.195
-0.205
-0.18
-0.16
-0.13
-0.12
-0.145
-0.17
-0.18
-0.16
-0.135
-0.115
-0.095
-0.075
-0.07
-0.04
-0.03
-0.025
-0.035
-0.04
-0.06
-0.08
-0.09
-0.055
-0.04
-0.02
0.005
0.01
-0.005
-0.065
-0.12
-0.16
-0.16
-0.135
-0.1
-0.075
-0.055
-0.06
-0.07
-0.11
-0.155
-0.18
-0.195
-0.205
-0.205
-0.2
-0.205
-0.215
-0.195
-0.205
-0.205
-0.21
-0.22
-0.245
-0.255
-0.27
-0.275
-0.27
-0.28
-0.275
-0.28
-0.29
-0.315
-0.32
-0.34
-0.33
-0.325
-0.325
-0.325
-0.32
-0.31
-0.3
-0.29
-0.29
-0.295
-0.295
-0.285
-0.28
-0.275
-0.26
-0.245
-0.24
-0.245
-0.245
-0.24
-0.255
-0.235
-0.25
-0.26
-0.27
-0.295
-0.285
-0.27
-0.25
-0.235
-0.235
-0.22
-0.215
-0.215
-0.24
-0.275
-0.285
-0.285
-0.275
-0.265
-0.25
-0.225
-0.215
-0.195
-0.2
-0.22
-0.23
-0.25
-0.27
-0.295
-0.31
-0.305
-0.275
-0.26
-0.23
-0.215
-0.2
-0.2
-0.2
-0.235
-0.275
-0.3
-0.31
-0.295
-0.27
-0.27
-0.265
-0.28
-0.285
-0.29
-0.3
-0.295
-0.285
-0.275
-0.265
-0.235
-0.225
-0.215
-0.22
-0.225
-0.22
-0.225
-0.175
-0.105
-0.015
0.09
0.195
0.255
0.27
0.18
0.015
-0.18
-0.385
-0.515
-0.585
-0.6
-0.565
-0.54
-0.5
-0.44
-0.425
-0.425
-0.465
-0.505
-0.55
-0.54
-0.515
-0.47
-0.425
-0.415
-0.41
-0.435
-0.46
-0.465
-0.47
-0.435
-0.42
-0.415
-0.395
-0.39
-0.395
-0.38
-0.37
-0.365
-0.345
-0.33
-0.28
-0.255
-0.225
-0.205
-0.19
-0.175
-0.2
-0.25
-0.29
-0.345
-0.385
-0.385
-0.36
-0.32
-0.305
-0.28
-0.27
-0.275
-0.26
-0.225
-0.185
-0.155
-0.14
-0.17
-0.24
-0.3
-0.35
-0.36
-0.34
-0.325
-0.285
-0.285
-0.25
-0.25
-0.24
-0.235
-0.215
-0.2
-0.205
-0.195
-0.195
-0.18
-0.17
-0.135
-0.11
-0.12
-0.17
-0.22
-0.25
-0.26
-0.235
-0.19
-0.155
-0.13
-0.12
-0.115
-0.12
-0.11
-0.085
-0.065
-0.05
-0.03
-0.025
-0.04
-0.015
-0.025
-0.05
-0.08
-0.105
-0.13
-0.145
-0.14
-0.125
-0.11
-0.1
-0.085
-0.09
-0.115
-0.13
-0.135
-0.125
-0.125
-0.135
-0.18
-0.19
-0.225
-0.245
-0.245
-0.265
-0.27
-0.295
-0.31
-0.31
-0.295
-0.275
-0.25
-0.24
-0.225
-0.235
-0.235
-0.255
-0.29
-0.31
-0.335
-0.36
-0.36
-0.365
-0.355
-0.315
-0.29
-0.285
-0.275
-0.285
-0.28
-0.3
-0.31
-0.3
-0.295
-0.265
-0.26
-0.25
-0.25
-0.25
-0.265
-0.285
-0.295
-0.31
-0.315
-0.31
-0.3
-0.275
-0.26
-0.245
-0.24
-0.25
-0.27
-0.285
-0.305
-0.325
-0.34
-0.32
-0.325
-0.315
-0.305
-0.29
-0.27
-0.27
-0.255
-0.255
-0.265
-0.27
-0.27
-0.265
-0.27
-0.26
-0.27
-0.29
-0.3
-0.32
-0.31
-0.295
-0.275
-0.255
-0.265
-0.27
-0.285
-0.305
-0.315
-0.315
-0.32
-0.32
-0.315
-0.31
-0.31
-0.305
-0.3
-0.285
-0.27
-0.255
-0.26
-0.29
-0.315
-0.355
-0.355
-0.36
-0.36
-0.34
-0.34
-0.315
-0.29
-0.285
-0.265
-0.23
-0.17
-0.145
-0.165
-0.24
-0.355
-0.445
-0.5
-0.485
-0.445
-0.37
-0.315
-0.275
-0.255
-0.26
-0.275
-0.305
-0.315
-0.32
-0.33
-0.325
-0.31
-0.3
-0.275
-0.265
-0.23
-0.225
-0.21
-0.24
-0.275
-0.325
-0.345
-0.38
-0.4
-0.395
-0.385
-0.34
-0.31
-0.285
-0.275
-0.275
-0.275
-0.305
-0.32
-0.33
-0.34
-0.34
-0.33
-0.32
-0.315
-0.305
-0.305
-0.305
-0.31
-0.31
-0.32
-0.315
-0.295
-0.29
-0.27
-0.235
-0.225
-0.26
-0.285
-0.32
-0.345
-0.365
-0.38
-0.375
-0.365
-0.355
-0.33
-0.29
-0.245
-0.225
-0.235
-0.255
-0.285
-0.315
-0.345
-0.365
-0.375
-0.365
-0.37
-0.355
-0.335
-0.315
-0.305
-0.295
-0.285
-0.28
-0.275
-0.285
-0.285
-0.29
-0.29
-0.3
-0.3
-0.305
-0.3
-0.295
-0.295
-0.285
-0.28
-0.26
-0.245
-0.245
-0.26
-0.275
-0.31
-0.335
-0.325
-0.31
-0.315
-0.295
-0.29
-0.29
-0.275
-0.265
-0.27
-0.29
-0.3
-0.325
-0.315
-0.3
-0.285
-0.29
-0.305
-0.285
-0.285
-0.285
-0.27
-0.25
-0.27
-0.28
-0.305
-0.315
-0.34
-0.34
-0.31
-0.295
-0.28
-0.27
-0.245
-0.23
-0.235
-0.235
-0.275
-0.31
-0.345
-0.355
-0.33
-0.295
-0.27
-0.255
-0.255
-0.28
-0.29
-0.31
-0.32
-0.315
-0.295
-0.295
-0.285
-0.295
-0.285
-0.29
-0.3
-0.295
-0.3
-0.29
-0.29
-0.28
-0.28
-0.285
-0.29
-0.285
-0.26
-0.235
-0.225
-0.22
-0.21
-0.245
-0.29
-0.325
-0.345
-0.34
-0.345
-0.335
-0.305
-0.29
-0.265
-0.25
-0.26
-0.245
-0.24
-0.24
-0.24
-0.235
-0.25
-0.25
-0.26
-0.28
-0.295
-0.305
-0.29
-0.285
-0.265
-0.25
-0.245
-0.25
-0.24
-0.235
-0.23
-0.23
-0.245
-0.25
-0.25
-0.25
-0.25
-0.255
-0.265
-0.265
-0.285
-0.29
-0.285
-0.275
-0.28
-0.255
-0.255
-0.26
-0.26
-0.275
-0.285
-0.285
-0.29
-0.3
-0.275
-0.27
-0.265
-0.26
-0.245
-0.25
-0.25
-0.235
-0.255
-0.265
-0.28
-0.285
-0.285
-0.285
-0.265
-0.24
-0.23
-0.24
-0.245
-0.27
-0.275
-0.27
-0.27
-0.26
-0.26
-0.26
-0.255
-0.255
-0.23
-0.24
-0.245
-0.255
-0.285
-0.305
-0.315
-0.31
-0.29
-0.265
-0.245
-0.225
-0.215
-0.21
-0.2
-0.215
-0.22
-0.235
-0.25
-0.265
-0.265
-0.265
-0.26
-0.24
-0.22
-0.195
-0.19
-0.18
-0.175
-0.17
-0.18
-0.17
-0.18
-0.19
-0.205
-0.205
-0.19
-0.175
-0.17
-0.155
-0.145
-0.135
-0.155
-0.19
-0.22
-0.25
-0.265
-0.28
-0.265
-0.25
-0.215
-0.195
-0.18
-0.185
-0.2
-0.215
-0.225
-0.26
-0.265
-0.27
-0.26
-0.25
-0.265
-0.24
-0.235
-0.23
-0.22
-0.24
-0.265
-0.29
-0.3
-0.295
-0.28
-0.27
-0.265
-0.255
-0.265
-0.265
-0.28
-0.29
-0.3
-0.275
-0.255
-0.26
-0.255
-0.265
-0.275
-0.295
-0.3
-0.31
-0.3
-0.28
-0.25
-0.225
-0.21
-0.185
-0.175
-0.165
-0.155
-0.14
-0.12
-0.11
-0.07
0.015
0.12
0.225
0.295
0.3
0.2
0.0
-0.225
-0.425
-0.54
-0.595
-0.595
-0.55
-0.52
-0.505
-0.48
-0.475
-0.47
-0.475
-0.475
-0.495
-0.51
-0.5
-0.48
-0.44
-0.43
-0.415
-0.405
-0.41
-0.415
-0.435
-0.445
-0.46
-0.48
-0.485
-0.48
-0.455
-0.42
-0.385
-0.33
-0.3
-0.27
-0.27
-0.26
-0.265
-0.285
-0.29
-0.285
-0.285
-0.275
-0.26
-0.24
-0.22
-0.22
-0.22
-0.235
-0.25
-0.265
-0.275
-0.285
-0.28
-0.275
-0.275
-0.26
-0.24
-0.21
-0.2
-0.2
-0.225
-0.255
-0.275
-0.29
-0.28
-0.245
-0.2
-0.175
-0.17
-0.19
-0.235
-0.265
-0.275
-0.26
-0.235
-0.205
-0.185
-0.17
-0.195
-0.19
-0.195
-0.185
-0.19
-0.19
-0.175
-0.16
-0.15
-0.15
-0.12
-0.105
-0.12
-0.105
-0.11
-0.085
-0.075
-0.075
-0.065
-0.065
-0.08
-0.095
-0.1
-0.105
-0.09
-0.09
-0.07
-0.045
-0.025
-0.02
-0.03
-0.045
-0.05
-0.065
-0.06
-0.065
-0.06
-0.065
-0.06
-0.055
-0.055
-0.06
-0.05
-0.06
-0.055
-0.06
-0.06
-0.07
-0.085
-0.1
-0.115
-0.125
-0.145
-0.165
-0.175
-0.16
-0.17
-0.17
-0.18
-0.17
-0.185
-0.19
-0.225
-0.24
-0.27
-0.275
-0.265
-0.265
-0.26
-0.265
-0.27
-0.28
-0.28
-0.285
-0.28
-0.275
-0.28
-0.26
-0.255
-0.255
-0.26
-0.25
-0.24
-0.21
-0.185
-0.165
-0.16
-0.17
-0.18
-0.2
-0.21
-0.22
-0.235
-0.245
-0.245
-0.24
-0.22
-0.22
-0.2
-0.19
-0.185
-0.19
-0.19
-0.18
-0.17
-0.175
-0.175
-0.19
-0.22
-0.25
-0.255
-0.25
-0.235
-0.205
-0.175
-0.15
-0.165
-0.175
-0.215
-0.24
-0.25
-0.265
-0.245
-0.215
-0.2
-0.175
-0.165
-0.185
-0.205
-0.235
-0.265
-0.255
-0.245
-0.23
-0.22
-0.205
-0.2
-0.185
-0.19
-0.185
-0.185
-0.185
-0.19
-0.22
-0.24
-0.255
-0.24
-0.24
-0.23
-0.22
-0.225
-0.2
-0.14
-0.065
0.05
0.18
0.26
0.31
0.255
0.125
-0.07
-0.275
-0.46
-0.545
-0.555
-0.535
-0.49
-0.425
-0.395
-0.39
-0.375
-0.38
-0.4
-0.4
-0.39
-0.375
-0.365
-0.355
-0.37
-0.395
-0.425
-0.45
-0.46
-0.465
-0.455
-0.445
-0.44
-0.43
-0.41
-0.385
-0.355
-0.325
-0.26
-0.205
-0.145
-0.135
-0.16
-0.2
-0.245
-0.305
-0.33
-0.32
-0.31
-0.285
-0.25
-0.24
-0.215
-0.21
-0.22
-0.21
-0.205
-0.195
-0.2
-0.22
-0.25
-0.255
-0.26
-0.24
-0.215
-0.21
-0.2
-0.185
-0.2
-0.225
-0.245
-0.265
-0.27
-0.25
-0.23
-0.22
-0.185
-0.175
-0.15
-0.155
-0.155
-0.17
-0.19
-0.2
-0.21
-0.2
-0.175
-0.135
-0.11
-0.105
-0.11
-0.115
-0.13
-0.12
-0.095
-0.085
-0.06
-0.055
-0.045
-0.065
-0.075
-0.08
-0.075
-0.065
-0.06
-0.045
-0.035
-0.04
-0.055
-0.075
-0.085
-0.075
-0.06
-0.04
-0.03
-0.04
-0.05
-0.06
-0.075
-0.095
-0.085
-0.085
-0.095
-0.11
-0.13
-0.155
-0.18
-0.2
-0.205
-0.2
-0.18
-0.165
-0.165
-0.195
-0.23
-0.225
-0.235
-0.245
-0.26
-0.275
-0.295
-0.29
-0.285
-0.27
-0.255
-0.25
-0.26
-0.285
-0.285
-0.275
-0.26
-0.255
-0.24
-0.25
-0.24
-0.24
-0.23
-0.225
-0.24
-0.245
-0.24
-0.255
-0.245
-0.24
-0.245
-0.245
-0.25
-0.26
-0.255
-0.25
-0.24
-0.225
-0.225
-0.235
-0.245
-0.24
-0.255
-0.25
-0.25
-0.245
-0.245
-0.24
-0.23
-0.23
-0.215
-0.2
-0.195
-0.2
-0.225
-0.255
-0.27
-0.275
-0.265
-0.24
-0.23
-0.22
-0.235
-0.245
-0.255
-0.26
-0.285
-0.275
-0.27
-0.265
-0.25
-0.24
-0.235
-0.245
-0.26
-0.24
-0.245
-0.24
-0.215
-0.235
-0.24
-0.25
-0.25
-0.245
-0.24
-0.26
-0.265
-0.26
-0.275
-0.26
-0.265
-0.255
-0.265
-0.265
-0.275
-0.285
-0.275
-0.265
-0.245
-0.225
-0.225
-0.235
-0.25
-0.265
-0.27
-0.27
-0.255
-0.26
-0.25
-0.245
-0.24
-0.23
-0.23
-0.23
-0.23
-0.245
-0.25
-0.255
-0.265
-0.255
-0.245
-0.24
-0.24
-0.25
-0.235
-0.235
-0.24
-0.255
-0.26
-0.265
-0.26
-0.255
-0.265
-0.255
-0.26
-0.24
-0.24
-0.24
-0.245
-0.275
-0.3
-0.32
-0.315
-0.29
-0.27
-0.25
-0.23
-0.205
-0.215
-0.21
-0.22
-0.235
-0.25
-0.255
-0.29
-0.32
-0.325
-0.32
-0.3
-0.265
-0.24
-0.215
-0.205
-0.225
-0.26
-0.305
-0.31
-0.295
-0.28
-0.26
-0.235
-0.215
-0.22
-0.24
-0.25
-0.265
-0.285
-0.275
-0.275
-0.275
-0.255
-0.25
-0.255
-0.245
-0.24
-0.215
-0.205
-0.195
-0.2
-0.225
-0.24
-0.285
-0.295
-0.315
-0.31
-0.28
-0.265
-0.23
-0.225
-0.23
-0.25
-0.27
-0.265
-0.25
-0.24
-0.245
-0.255
-0.26
-0.285
-0.275
-0.26
-0.27
-0.265
-0.27
-0.25
-0.24
-0.225
-0.215
-0.215
-0.225
-0.24
-0.255
-0.26
-0.265
-0.27
-0.265
-0.255
-0.26
-0.27
-0.265
-0.275
-0.265
-0.26
-0.265
-0.255
-0.25
-0.245
-0.23
-0.22
-0.22
-0.225
-0.25
-0.275
-0.285
-0.285
-0.26
-0.235
-0.225
-0.23
-0.245
-0.26
-0.265
-0.26
-0.23
-0.22
-0.205
-0.215
-0.215
-0.21
-0.225
-0.24
-0.26
-0.285
-0.285
-0.27
-0.245
-0.22
-0.215
-0.225
-0.24
-0.24
-0.26
-0.26
-0.265
-0.25
-0.24
-0.245
-0.235
-0.24
-0.24
-0.245
-0.24
-0.235
-0.255
-0.26
-0.245
-0.24
-0.22
-0.22
-0.215
-0.23
-0.23
-0.245
-0.24
-0.23
-0.255
-0.26
-0.27
-0.315
-0.29
-0.265
-0.24
-0.2
-0.18
-0.175
-0.225
-0.255
-0.3
-0.32
-0.315
-0.295
-0.275
-0.245
-0.23
-0.215
-0.19
-0.175
-0.185
-0.205
-0.235
-0.26
-0.27
-0.27
-0.29
-0.295
-0.305
-0.295
-0.27
-0.245
-0.235
-0.215
-0.21
-0.21
-0.22
-0.22
-0.21
-0.205
-0.23
-0.265
-0.28
-0.315
-0.31
-0.295
-0.28
-0.26
-0.245
-0.25
-0.245
-0.24
-0.235
-0.21
-0.19
-0.185
-0.185
-0.22
-0.265
-0.295
-0.295
-0.29
-0.28
-0.275
-0.275
-0.245
-0.23
-0.215
-0.195
-0.19
-0.205
-0.235
-0.265
-0.28
-0.265
-0.27
-0.255
-0.24
-0.215
-0.21
-0.22
-0.215
-0.205
-0.205
-0.19
-0.185
-0.17
-0.16
-0.16
-0.15
-0.15
-0.16
-0.17
-0.185
-0.17
-0.175
-0.165
-0.17
-0.185
-0.195
-0.195
-0.19
-0.17
-0.16
-0.165
-0.185
-0.22
-0.235
-0.24
-0.225
-0.235
-0.23
-0.24
-0.24
-0.235
-0.245
-0.24
-0.24
-0.245
-0.25
-0.255
-0.255
-0.275
-0.255
-0.24
-0.23
-0.22
-0.21
-0.21
-0.22
-0.22
-0.24
-0.25
-0.27
-0.285
-0.27
-0.275
-0.265
-0.245
-0.23
-0.225
-0.225
-0.25
-0.265
-0.27
-0.29
-0.275
-0.275
-0.255
-0.205
-0.185
-0.165
-0.145
-0.12
-0.105
-0.11
-0.125
-0.125
-0.095
-0.06
0.005
0.08
0.17
0.22
0.185
0.075
-0.115
-0.305
-0.45
-0.525
-0.535
-0.53
-0.49
-0.47
-0.455
-0.445
-0.45
-0.465
-0.47
-0.485
-0.495
-0.47
-0.445
-0.405
-0.38
-0.375
-0.395
-0.42
-0.455
-0.46
-0.46
-0.45
-0.435
-0.405
-0.39
-0.365
-0.335
-0.32
-0.3
-0.29
-0.27
-0.245
-0.235
-0.225
-0.225
-0.24
-0.245
-0.23
-0.21
-0.2
-0.22
-0.255
-0.255
-0.25
-0.24
-0.245
-0.235
-0.235
-0.235
-0.21
-0.215
-0.195
-0.195
-0.195
-0.2
-0.225
-0.235
-0.245
-0.265
-0.25
-0.235
-0.2
-0.175
-0.17
-0.185
-0.195
-0.21
-0.195
-0.185
-0.17
-0.175
-0.185
-0.2
-0.21
-0.21
-0.175
-0.155
-0.13
-0.13
-0.14
-0.15
-0.15
-0.14
-0.135
-0.115
-0.115
-0.115
-0.11
-0.105
-0.1
-0.1
-0.08
-0.085
-0.085
-0.085
-0.08
-0.08
-0.07
-0.06
-0.055
-0.05
-0.055
-0.055
-0.065
-0.06
-0.035
-0.04
-0.045
-0.055
-0.065
-0.06
-0.05
-0.04
-0.035
-0.025
-0.03
-0.045
-0.06
-0.085
-0.11
-0.135
-0.15
-0.155
-0.15
-0.13
-0.125
-0.115
-0.12
-0.13
-0.135
-0.155
-0.165
-0.18
-0.18
-0.185
-0.195
-0.21
-0.24
-0.24
-0.235
-0.24
-0.245
-0.25
-0.255
-0.25
-0.25
-0.22
-0.19
-0.175
-0.185
-0.2
-0.21
-0.23
-0.225
-0.21
-0.17
-0.13
-0.11
-0.105
-0.145
-0.18
-0.215
-0.245
-0.24
-0.21
-0.185
-0.16
-0.145
-0.135
-0.14
-0.15
-0.16
-0.16
-0.175
-0.175
-0.185
-0.175
-0.165
-0.15
-0.145
-0.145
-0.13
-0.13
-0.135
-0.12
-0.12
-0.135
-0.14
-0.14
-0.16
-0.15
-0.135
-0.13
-0.13
-0.13
-0.13
-0.13
-0.115
-0.085
-0.075
-0.09
-0.11
-0.13
-0.16
-0.18
-0.16
-0.135
-0.105
-0.095
-0.105
-0.12
-0.125
-0.13
-0.14
-0.16
-0.175
-0.145
-0.13
-0.105
-0.11
-0.125
-0.14
-0.135
-0.11
-0.085
-0.07
-0.08
-0.095
-0.095
-0.1
-0.065
0.005
0.095
0.18
0.24
0.315
0.32
0.26
0.115
-0.075
-0.25
-0.385
-0.435
-0.415
-0.35
-0.29
-0.255
-0.245
-0.26
-0.295
-0.36
-0.4
-0.43
-0.4
-0.35
-0.275
-0.215
-0.205
-0.215
-0.25
-0.27
-0.325
-0.355
-0.385
-0.37
-0.35
-0.295
-0.255
-0.21
-0.18
-0.165
-0.16
-0.145
-0.13
-0.095
-0.085
-0.08
-0.075
-0.105
-0.135
-0.15
-0.17
-0.17
-0.155
-0.115
-0.085
-0.065
-0.08
-0.105
-0.13
-0.14
-0.15
-0.135
-0.125
-0.105
-0.08
-0.08
-0.075
-0.085
-0.1
-0.1
-0.105
-0.085
-0.08
-0.06
-0.055
-0.06
-0.055
-0.085
-0.08
-0.075
-0.085
-0.065
-0.07
-0.07
-0.075
-0.06
-0.045
-0.04
-0.02
-0.025
-0.02
-0.02
-0.025
-0.005
0.015
0.02
0.03
0.045
0.05
0.055
0.05
0.055
0.05
0.06
0.09
0.1
0.105
0.08
0.075
0.065
0.09
0.11
0.105
0.115
0.115
0.105
0.1
0.085
0.075
0.075
0.08
0.08
0.07
0.055
0.05
0.045
0.045
0.02
0.01
0.005
-0.015
-0.04
-0.05
-0.06
-0.065
-0.07
-0.07
-0.075
-0.085
-0.085
-0.09
-0.08
-0.08
-0.095
-0.11
-0.12
-0.13
-0.115
-0.105
-0.11
-0.13
-0.155
-0.19
-0.2
-0.205
-0.19
-0.18
-0.16
-0.15
-0.13
-0.125
-0.13
-0.14
-0.145
-0.15
-0.15
-0.145
-0.13
-0.105
-0.09
-0.095
-0.13
-0.14
-0.17
-0.195
-0.18
-0.16
-0.12
-0.105
-0.135
-0.14
-0.165
-0.185
-0.2
-0.2
-0.2
-0.215
-0.22
-0.215
-0.21
-0.215
-0.19
-0.175
-0.165
-0.18
-0.18
-0.195
-0.19
-0.185
-0.18
-0.15
-0.115
-0.095
-0.09
-0.1
-0.135
-0.165
-0.185
-0.19
-0.17
-0.16
-0.15
-0.14
-0.15
-0.17
-0.17
-0.17
-0.17
-0.175
-0.18
-0.215
-0.235
-0.245
-0.215
-0.19
-0.165
-0.15
-0.125
-0.12
-0.135
-0.17
-0.205
-0.23
-0.255
-0.245
-0.225
-0.2
-0.185
-0.16
-0.15
-0.13
-0.105
-0.09
-0.105
-0.145
-0.19
-0.255
-0.27
-0.28
-0.28
-0.25
-0.21
-0.18
-0.16
-0.135
-0.11
-0.07
-0.06
-0.08
-0.12
-0.18
-0.25
-0.275
-0.27
-0.235
-0.2
-0.145
-0.11
-0.075
-0.035
-0.005
0.06
0.13
0.21
0.3
0.38
0.405
0.345
0.155
-0.105
-0.33
-0.49
-0.555
-0.565
-0.535
-0.485
-0.44
-0.4
-0.345
-0.32
-0.33
-0.36
-0.405
-0.455
-0.475
-0.46
-0.43
-0.39
-0.355
-0.34
-0.355
-0.37
-0.39
-0.395
-0.41
-0.4
-0.385
-0.375
-0.35
-0.31
-0.27
-0.23
-0.215
-0.185
-0.17
-0.145
-0.145
-0.16
-0.19
-0.24
-0.255
-0.26
-0.245
-0.215
-0.19
-0.155
-0.155
-0.145
-0.18
-0.19
-0.21
-0.225
-0.23
-0.22
-0.215
-0.2
-0.185
-0.165
-0.16
-0.155
-0.175
-0.185
-0.195
-0.21
-0.19
-0.17
-0.175
-0.175
-0.18
-0.17
-0.145
-0.135
-0.095
-0.06
-0.055
-0.08
-0.12
-0.165
-0.2
-0.22
-0.205
-0.18
-0.155
-0.115
-0.09
-0.055
-0.05
-0.025
-0.005
0.01
0.015
-0.02
-0.05
-0.06
-0.065
-0.045
-0.02
0.0
0.03
0.03
0.02
0.005
0.005
0.005
0.015
0.03
0.045
0.045
0.025
-0.005
-0.045
-0.06
-0.075
-0.075
-0.07
-0.085
-0.09
-0.08
-0.07
-0.065
-0.08
-0.105
-0.14
-0.16
-0.17
-0.185
-0.18
-0.17
-0.165
-0.165
-0.17
-0.19
-0.18
-0.195
-0.205
-0.205
-0.215
-0.205
-0.19
-0.165
-0.155
-0.145
-0.165
-0.185
-0.2
-0.215
-0.23
-0.22
-0.225
-0.215
-0.225
-0.215
-0.22
-0.215
-0.21
-0.2
-0.195
-0.19
-0.185
-0.175
-0.17
-0.16
-0.155
-0.16
-0.165
-0.175
-0.175
-0.175
-0.17
-0.165
-0.155
-0.155
-0.175
-0.18
-0.195
-0.205
-0.19
-0.17
-0.15
-0.15
-0.15
-0.15
-0.175
-0.2
-0.225
-0.24
-0.23
-0.22
-0.205
-0.205
-0.195
-0.175
-0.16
-0.16
-0.165
-0.175
-0.19
-0.205
-0.195
-0.2
-0.195
-0.19
-0.205
-0.205
-0.21
-0.225
-0.235
-0.23
-0.23
-0.22
-0.205
-0.2
-0.2
-0.205
-0.215
-0.225
-0.215
-0.225
-0.205
-0.175
-0.16
-0.15
-0.155
-0.19
-0.23
-0.24
-0.25
-0.235
-0.2
-0.17
-0.175
-0.195
-0.22
-0.235
-0.24
-0.22
-0.215
-0.185
-0.18
-0.18
-0.19
-0.21
-0.215
-0.22
-0.225
-0.225
-0.23
-0.22
-0.22
-0.195
-0.195
-0.185
-0.17
-0.16
-0.16
-0.19
-0.215
-0.225
-0.225
-0.21
-0.21
-0.2
-0.225
-0.23
-0.24
-0.24
-0.24
-0.225
-0.215
-0.195
-0.175
-0.16
-0.17
-0.18
-0.2
-0.22
-0.21
-0.22
-0.245
-0.24
-0.245
-0.235
-0.22
-0.225
-0.23
-0.225
-0.215
-0.2
-0.195
-0.195
-0.205
-0.215
-0.22
-0.21
-0.21
-0.21
-0.2
-0.205
-0.21
-0.22
-0.205
-0.215
-0.22
-0.215
-0.215
-0.195
-0.2
-0.21
-0.21
-0.22
-0.225
-0.21
-0.195
-0.19
-0.185
-0.175
-0.195
-0.2
-0.21
-0.22
-0.235
-0.23
-0.22
-0.205
-0.195
-0.19
-0.19
-0.2
-0.195
-0.195
-0.19
-0.175
-0.185
-0.21
-0.23
-0.245
-0.255
-0.24
-0.24
-0.22
-0.2
-0.195
-0.205
-0.215
-0.225
-0.22
-0.205
-0.2
-0.205
-0.205
-0.205
-0.215
-0.21
-0.215
-0.235
-0.25
-0.245
-0.235
-0.225
-0.2
-0.175
-0.17
-0.165
-0.19
-0.195
-0.215
-0.215
-0.2
-0.185
-0.185
-0.2
-0.21
-0.245
-0.275
-0.29
-0.29
-0.26
-0.24
-0.22
-0.195
-0.18
-0.185
-0.21
-0.225
-0.235
-0.24
-0.24
-0.22
-0.22
-0.215
-0.215
-0.23
-0.235
-0.215
-0.215
-0.195
-0.195
-0.2
-0.205
-0.22
-0.24
-0.225
-0.21
-0.21
-0.225
-0.215
-0.215
-0.205
-0.195
-0.215
-0.23
-0.245
-0.245
-0.255
-0.225
-0.215
-0.205
-0.19
-0.195
-0.195
-0.21
-0.22
-0.24
-0.235
-0.225
-0.205
-0.195
-0.19
-0.195
-0.205
-0.205
-0.205
-0.2
-0.225
-0.23
-0.225
-0.22
-0.205
-0.215
-0.19
-0.195
-0.175
-0.195
-0.21
-0.225
-0.24
-0.255
-0.26
-0.25
-0.245
-0.225
-0.2
-0.195
-0.18
-0.165
-0.155
-0.17
-0.195
-0.235
-0.255
-0.27
-0.265
-0.25
-0.23
-0.22
-0.19
-0.18
-0.17
-0.155
-0.165
-0.185
-0.205
-0.225
-0.255
-0.25
-0.23
-0.2
-0.18
-0.19
-0.215
-0.245
-0.235
-0.245
-0.25
-0.25
-0.225
-0.2
-0.19
-0.17
-0.15
-0.14
-0.16
-0.18
-0.215
-0.265
-0.285
-0.28
-0.25
-0.235
-0.205
-0.19
-0.19
-0.205
-0.235
-0.26
-0.29
-0.305
-0.305
-0.28
-0.24
-0.22
-0.2
-0.19
-0.205
-0.215
-0.23
-0.25
-0.27
-0.265
-0.25
-0.215
-0.18
-0.165
-0.16
-0.165
-0.185
-0.2
-0.215
-0.225
-0.225
-0.23
-0.23
-0.23
-0.23
-0.215
-0.195
-0.185
-0.175
-0.2
-0.22
-0.24
-0.25
-0.25
-0.23
-0.215
-0.17
-0.16
-0.155
-0.155
-0.16
-0.15
-0.14
-0.135
-0.145
-0.15
-0.16
-0.18
-0.185
-0.175
-0.16
-0.15
-0.145
-0.155
-0.175
-0.205
-0.215
-0.23
-0.23
-0.22
-0.2
-0.19
-0.19
-0.185
-0.18
-0.18
-0.205
-0.215
-0.24
-0.235
-0.23
-0.22
-0.22
-0.215
-0.225
-0.225
-0.245
-0.255
-0.255
-0.25
-0.255
-0.265
-0.235
-0.23
-0.22
-0.225
-0.235
-0.245
-0.22
-0.215
-0.2
-0.215
-0.23
-0.255
-0.275
-0.285
-0.265
-0.25
-0.225
-0.2
-0.195
-0.22
-0.255
-0.27
-0.25
-0.21
-0.16
-0.115
-0.08
-0.025
0.035
0.12
0.195
0.245
0.235
0.15
-0.035
-0.24
-0.42
-0.52
-0.55
-0.525
-0.485
-0.465
-0.445
-0.445
-0.445
-0.46
-0.485
-0.5
-0.51
-0.505
-0.475
-0.445
-0.42
-0.39
-0.395
-0.405
-0.44
-0.445
-0.465
-0.465
-0.455
-0.435
-0.395
-0.38
-0.36
-0.33
-0.305
-0.265
-0.24
-0.21
-0.21
-0.21
-0.245
-0.25
-0.24
-0.22
-0.19
-0.19
-0.215
-0.25
-0.29
-0.28
-0.275
-0.265
-0.255
-0.26
-0.265
-0.27
-0.275
-0.265
-0.26
-0.255
-0.245
-0.25
-0.23
-0.23
-0.24
-0.215
-0.205
-0.21
-0.21
-0.195
-0.195
-0.22
-0.205
-0.2
-0.19
-0.15
-0.14
-0.16
-0.195
-0.245
-0.255
-0.23
-0.2
-0.17
-0.13
-0.125
-0.15
-0.16
-0.17
-0.18
-0.17
-0.145
-0.12
-0.1
-0.075
-0.095
-0.105
-0.115
-0.085
-0.07
-0.07
-0.08
-0.07
-0.07
-0.065
-0.065
-0.06
-0.055
-0.07
-0.075
-0.085
-0.075
-0.06
-0.055
-0.035
-0.04
-0.05
-0.07
-0.045
-0.04
-0.03
-0.05
-0.07
-0.095
-0.115
-0.105
-0.095
-0.12
-0.145
-0.16
-0.15
-0.145
-0.16
-0.16
-0.17
-0.185
-0.185
-0.19
-0.2
-0.22
-0.23
-0.24
-0.235
-0.26
-0.3
-0.33
-0.345
-0.355
-0.345
-0.315
-0.285
-0.265
-0.25
-0.25
-0.255
-0.25
-0.255
-0.255
-0.275
-0.275
-0.275
-0.26
-0.235
-0.22
-0.22
-0.215
-0.22
-0.225
-0.245
-0.235
-0.26
-0.265
-0.28
-0.27
-0.26
-0.23
-0.215
-0.21
-0.21
-0.215
-0.24
-0.245
-0.265
-0.26
-0.25
-0.225
-0.205
-0.2
-0.2
-0.22
-0.23
-0.24
-0.235
-0.225
-0.22
-0.2
-0.19
-0.2
-0.215
-0.245
-0.265
-0.26
-0.245
-0.215
-0.185
-0.175
-0.205
-0.235
-0.285
-0.295
-0.3
-0.285
-0.265
-0.245
-0.225
-0.22
-0.225
-0.225
-0.255
-0.26
-0.26
-0.25
-0.235
-0.21
-0.205
-0.2
-0.195
-0.195
-0.195
-0.205
-0.23
-0.26
-0.24
-0.185
-0.1
-0.005
0.095
0.145
0.17
0.125
0.03
-0.12
-0.275
-0.395
-0.48
-0.505
-0.5
-0.455
-0.435
-0.405
-0.38
-0.365
-0.37
-0.375
-0.385
-0.415
-0.455
-0.47
-0.48
-0.47
-0.46
-0.44
-0.43
-0.425
-0.425
-0.4
-0.4
-0.41
-0.415
-0.39
-0.37
-0.33
-0.3
-0.26
-0.215
-0.165
-0.15
-0.14
-0.17
-0.21
-0.245
-0.26
-0.275
-0.27
-0.25
-0.21
-0.195
-0.215
-0.24
-0.25
-0.27
-0.255
-0.24
-0.255
-0.24
-0.235
-0.235
-0.22
-0.205
-0.195
-0.185
-0.16
-0.175
-0.185
-0.2
-0.215
-0.205
-0.19
-0.165
-0.16
-0.16
-0.16
-0.18
-0.175
-0.17
-0.15
-0.135
-0.11
-0.095
-0.115
-0.13
-0.155
-0.15
-0.155
-0.145
-0.125
-0.105
-0.085
-0.085
-0.075
-0.045
-0.02
-0.01
0.01
0.01
0.03
0.035
0.05
0.04
0.04
-0.005
-0.035
-0.055
-0.05
-0.035
-0.01
0.025
0.05
0.07
0.045
0.01
-0.025
-0.055
-0.07
-0.065
-0.05
-0.03
-0.035
-0.045
-0.085
-0.125
-0.16
-0.19
-0.21
-0.24
-0.24
-0.23
-0.205
-0.19
-0.175
-0.165
-0.175
-0.18
-0.195
-0.215
-0.23
-0.235
-0.235
-0.215
-0.215
-0.215
-0.215
-0.205
-0.21
-0.215
-0.205
-0.23
-0.255
-0.245
-0.245
-0.235
-0.235
-0.22
-0.21
-0.2
-0.2
-0.195
-0.19
-0.205
-0.22
-0.21
-0.2
-0.2
-0.2
-0.195
-0.225
-0.25
-0.27
-0.29
-0.28
-0.275
-0.265
-0.25
-0.245
-0.25
-0.245
-0.245
-0.245
-0.23
-0.235
-0.23
-0.235
-0.24
-0.205
-0.205
-0.195
-0.2
-0.195
-0.18
-0.17
-0.16
-0.17
-0.18
-0.195
-0.21
-0.22
-0.235
-0.235
-0.23
-0.23
-0.22
-0.205
-0.185
-0.18
-0.17
-0.17
-0.18
-0.185
-0.19
-0.21
-0.21
-0.24
-0.245
-0.255
-0.225
-0.215
-0.215
-0.22
-0.22
-0.235
-0.23
-0.23
-0.22
-0.215
-0.215
-0.2
-0.185
-0.2
-0.19
-0.19
-0.2
-0.195
-0.205
-0.205
-0.21
-0.205
-0.185
-0.18
-0.165
-0.155
-0.155
-0.17
-0.17
-0.175
-0.175
-0.17
-0.155
-0.135
-0.125
-0.105
-0.105
-0.125
-0.125
-0.095
-0.04
0.05
0.16
0.26
0.36
0.405
0.375
0.24
0.03
-0.215
-0.4
-0.52
-0.57
-0.56
-0.52
-0.47
-0.43
-0.395
-0.38
-0.39
-0.39
-0.42
-0.41
-0.375
-0.345
-0.31
-0.285
-0.29
-0.31
-0.34
-0.38
-0.395
-0.395
-0.36
-0.345
-0.315
-0.29
-0.27
-0.265
-0.245
-0.23
-0.22
-0.2
-0.195
-0.175
-0.2
-0.185
-0.185
-0.175
-0.17
-0.165
-0.18
-0.205
-0.23
-0.235
-0.235
-0.19
-0.17
-0.155
-0.145
-0.15
-0.14
-0.155
-0.175
-0.18
-0.175
-0.175
-0.185
-0.16
-0.135
-0.12
-0.12
-0.125
-0.135
-0.165
-0.175
-0.165
-0.15
-0.13
-0.13
-0.115
-0.105
-0.09
-0.085
-0.115
-0.14
-0.165
-0.155
-0.115
-0.075
-0.035
0.0
-0.005
-0.015
-0.025
-0.025
-0.015
0.01
0.02
0.035
0.035
0.02
0.0
0.005
0.015
0.03
0.035
0.05
0.055
0.04
0.035
0.025
0.03
0.015
0.01
0.02
0.01
0.005
0.01
0.01
0.02
0.01
-0.02
-0.06
-0.09
-0.135
-0.16
-0.17
-0.165
-0.165
-0.165
-0.15
-0.155
-0.155
-0.16
-0.165
-0.175
-0.18
-0.19
-0.175
-0.175
-0.175
-0.185
-0.18
-0.185
-0.2
-0.185
-0.18
-0.17
-0.165
-0.175
-0.195
-0.22
-0.24
-0.24
-0.225
-0.215
-0.215
-0.235
-0.23
-0.245
-0.24
-0.265
-0.25
-0.245
-0.23
-0.235
-0.205
-0.205
-0.205
-0.205
-0.205
-0.2
-0.215
-0.22
-0.23
-0.23
-0.235
-0.225
-0.205
-0.195
-0.165
-0.145
-0.14
-0.155
-0.165
-0.18
-0.205
-0.2
-0.2
-0.19
-0.185
-0.185
-0.175
-0.175
-0.175
-0.19
-0.215
-0.225
-0.26
-0.255
-0.255
-0.24
-0.205
-0.17
-0.14
-0.15
-0.18
-0.195
-0.23
-0.24
-0.235
-0.235
-0.23
-0.23
-0.225
-0.21
-0.22
-0.215
-0.2
-0.185
-0.18
-0.195
-0.185
-0.19
-0.205
-0.21
-0.21
-0.2
-0.175
-0.16
-0.155
-0.17
-0.205
-0.255
-0.255
-0.245
-0.24
-0.225
-0.215
-0.205
-0.195
-0.195
-0.185
-0.17
-0.15
-0.13
-0.115
-0.085
-0.035
0.025
0.135
0.25
0.365
0.455
0.515
0.51
0.415
0.22
-0.025
-0.26
-0.425
-0.515
-0.54
-0.535
-0.51
-0.49
-0.47
-0.445
-0.44
-0.425
-0.43
-0.45
-0.465
-0.48
-0.465
-0.415
-0.385
-0.36
-0.34
-0.345
-0.355
-0.385
-0.385
-0.39
-0.395
-0.405
-0.41
-0.4
-0.385
-0.37
-0.34
-0.31
-0.265
-0.225
-0.21
-0.215
-0.21
-0.21
-0.205
-0.2
-0.185
-0.195
-0.21
-0.245
-0.245
-0.255
-0.255
-0.235
-0.205
-0.19
-0.18
-0.19
-0.19
-0.21
-0.23
-0.26
-0.275
-0.26
-0.265
-0.235
-0.225
-0.22
-0.205
-0.21
-0.205
-0.205
-0.225
-0.225
-0.21
-0.195
-0.175
-0.15
-0.135
-0.125
-0.125
-0.14
-0.155
-0.165
-0.17
-0.14
-0.145
-0.12
-0.11
-0.085
-0.08
-0.06
-0.05
-0.045
-0.03
-0.03
-0.025
-0.01
0.01
0.015
0.015
0.015
0.01
0.0
0.0
-0.005
0.0
0.005
0.025
0.025
0.04
0.04
0.045
0.035
0.01
-0.01
-0.025
-0.04
-0.05
-0.045
-0.06
-0.08
-0.1
-0.11
-0.115
-0.13
-0.145
-0.15
-0.155
-0.15
-0.16
-0.155
-0.17
-0.185
-0.195
-0.175
-0.18
-0.165
-0.155
-0.17
-0.17
-0.205
-0.23
-0.225
-0.225
-0.23
-0.225
-0.24
-0.24
-0.25
-0.26
-0.245
-0.245
-0.26
-0.27
-0.29
-0.3
-0.29
-0.28
-0.265
-0.245
-0.23
-0.245
-0.245
-0.245
-0.255
-0.265
-0.275
-0.28
-0.285
-0.3
-0.29
-0.27
-0.255
-0.255
-0.265
-0.275
-0.275
-0.28
-0.265
-0.255
-0.24
-0.215
-0.215
-0.205
-0.22
-0.24
-0.24
-0.24
-0.23
-0.23
-0.22
-0.225
-0.225
-0.225
-0.225
-0.225
-0.215
-0.235
-0.24
-0.235
-0.255
-0.265
-0.26
-0.24
-0.22
-0.205
-0.185
-0.205
-0.22
-0.245
-0.275
-0.275
-0.265
-0.255
-0.25
-0.245
-0.24
-0.23
-0.22
-0.22
-0.225
-0.23
-0.24
-0.24
-0.255
-0.26
-0.265
-0.275
-0.27
-0.265
-0.275
-0.255
-0.245
-0.235
-0.22
-0.21
-0.21
-0.225
-0.245
-0.265
-0.28
-0.27
-0.25
-0.235
-0.2
-0.185
-0.17
-0.16
-0.16
-0.16
-0.155
-0.155
-0.145
-0.09
-0.035
0.055
0.175
0.275
0.37
0.455
0.49
0.46
0.315
0.095
-0.17
-0.38
-0.535
-0.61
-0.635
-0.615
-0.56
-0.5
-0.455
-0.42
-0.425
-0.455
-0.485
-0.505
-0.515
-0.495
-0.445
-0.395
-0.35
-0.345
-0.365
-0.405
-0.435
-0.455
-0.47
-0.465
-0.44
-0.435
-0.405
-0.395
-0.36
-0.34
-0.28
-0.245
-0.195
-0.17
-0.15
-0.16
-0.19
-0.235
-0.27
-0.29
-0.295
-0.28
-0.26
-0.265
-0.25
-0.255
-0.24
-0.22
-0.21
-0.2
-0.15
-0.14
-0.165
-0.2
-0.235
-0.26
-0.27
-0.28
-0.275
-0.27
-0.265
-0.245
-0.225
-0.21
-0.195
-0.19
-0.18
-0.18
-0.17
-0.185
-0.2
-0.21
-0.205
-0.19
-0.145
-0.11
-0.095
-0.11
-0.115
-0.12
-0.14
-0.15
-0.14
-0.14
-0.085
-0.05
-0.015
-0.005
-0.005
0.0
-0.005
-0.01
-0.01
-0.01
-0.015
0.0
0.015
0.015
0.02
0.03
0.035
0.04
0.045
0.055
0.04
0.04
0.015
0.0
-0.02
-0.035
-0.03
-0.035
-0.05
-0.05
-0.065
-0.09
-0.115
-0.12
-0.125
-0.13
-0.17
-0.18
-0.185
-0.19
-0.185
-0.16
-0.175
-0.175
-0.2
-0.215
-0.225
-0.225
-0.215
-0.22
-0.225
-0.225
-0.225
-0.215
-0.24
-0.265
-0.295
-0.31
-0.305
-0.27
-0.235
-0.21
-0.2
-0.22
-0.255
-0.285
-0.325
-0.335
-0.35
-0.345
-0.32
-0.295
-0.285
-0.26
-0.25
-0.24
-0.235
-0.27
-0.3
-0.34
-0.37
-0.36
-0.365
-0.345
-0.315
-0.3
-0.28
-0.27
-0.26
-0.24
-0.24
-0.235
-0.27
-0.265
-0.26
-0.24
-0.24
-0.24
-0.25
-0.245
-0.245
-0.235
-0.235
-0.225
-0.23
-0.21
-0.195
-0.195
-0.22
-0.255
-0.305
-0.325
-0.345
-0.33
-0.31
-0.285
-0.26
-0.24
-0.225
-0.215
-0.205
-0.195
-0.18
-0.175
-0.18
-0.195
-0.225
-0.25
-0.295
-0.335
-0.33
-0.32
-0.3
-0.26
-0.22
-0.195
-0.19
-0.19
-0.195
-0.195
-0.2
-0.22
-0.235
-0.24
-0.255
-0.26
-0.28
-0.275
-0.29
-0.275
-0.26
-0.24
-0.23
-0.235
-0.245
-0.215
-0.215
-0.195
-0.19
-0.17
-0.16
-0.15
-0.145
-0.125
-0.085
0.0
0.095
0.2
0.315
0.41
0.485
0.515
0.46
0.3
0.06
-0.175
-0.38
-0.525
-0.6
-0.645
-0.62
-0.59
-0.54
-0.495
-0.485
-0.46
-0.475
-0.485
-0.5
-0.495
-0.485
-0.465
-0.42
-0.38
-0.365
-0.375
-0.38
-0.395
-0.395
-0.415
-0.41
-0.425
-0.44
-0.43
-0.385
-0.345
-0.3
-0.25
-0.22
-0.21
-0.22
-0.22
-0.235
-0.245
-0.235
-0.245
-0.245
-0.25
-0.255
-0.245
-0.235
-0.225
-0.22
-0.21
-0.21
-0.23
-0.23
-0.24
-0.235
-0.245
-0.235
-0.235
-0.23
-0.215
-0.215
-0.215
-0.215
-0.225
-0.205
-0.19
-0.17
-0.16
-0.15
-0.15
-0.15
-0.16
-0.175
-0.17
-0.18
-0.165
-0.165
-0.14
-0.135
-0.11
-0.105
-0.105
-0.105
-0.08
-0.065
-0.05
-0.035
-0.025
-0.02
-0.005
0.01
0.025
0.025
0.03
0.03
0.04
0.04
0.03
0.025
0.005
-0.005
-0.01
0.015
0.025
0.045
0.045
0.015
-0.005
-0.02
-0.055
-0.065
-0.07
-0.09
-0.11
-0.125
-0.145
-0.14
-0.13
-0.135
-0.13
-0.15
-0.165
-0.205
-0.21
-0.205
-0.21
-0.215
-0.225
-0.225
-0.25
-0.26
-0.26
-0.26
-0.26
-0.275
-0.265
-0.26
-0.265
-0.24
-0.215
-0.19
-0.185
-0.22
-0.255
-0.295
-0.32
-0.34
-0.34
-0.315
-0.305
-0.28
-0.29
-0.265
-0.275
-0.295
-0.33
-0.34
-0.33
-0.335
-0.345
-0.325
-0.32
-0.295
-0.265
-0.255
-0.255
-0.28
-0.31
-0.33
-0.35
-0.35
-0.335
-0.31
-0.275
-0.255
-0.22
-0.205
-0.2
-0.225
-0.24
-0.255
-0.27
-0.3
-0.3
-0.285
-0.27
-0.27
-0.265
-0.26
-0.26
-0.275
-0.27
-0.27
-0.27
-0.255
-0.25
-0.245
-0.245
-0.245
-0.26
-0.265
-0.265
-0.275
-0.28
-0.29
-0.3
-0.31
-0.31
-0.28
-0.27
-0.255
-0.245
-0.23
-0.23
-0.24
-0.255
-0.245
-0.225
-0.23
-0.24
-0.24
-0.25
-0.27
-0.28
-0.295
-0.28
-0.275
-0.24
-0.225
-0.225
-0.225
-0.24
-0.245
-0.24
-0.225
-0.2
-0.175
-0.16
-0.145
-0.105
-0.075
-0.005
0.085
0.19
0.295
0.405
0.46
0.43
0.305
0.075
-0.2
-0.425
-0.59
-0.655
-0.65
-0.61
-0.57
-0.55
-0.53
-0.525
-0.53
-0.525
-0.515
-0.505
-0.495
-0.45
-0.425
-0.4
-0.375
-0.36
-0.345
-0.345
-0.355
-0.405
-0.435
-0.495
-0.515
-0.52
-0.5
-0.455
-0.405
-0.345
-0.29
-0.235
-0.21
-0.215
-0.225
-0.24
-0.24
-0.24
-0.23
-0.205
-0.17
-0.17
-0.205
-0.26
-0.3
-0.34
-0.34
-0.32
-0.3
-0.26
-0.24
-0.22
-0.215
-0.205
-0.2
-0.18
-0.175
-0.185
-0.225
-0.255
-0.285
-0.305
-0.295
-0.29
-0.275
-0.245
-0.225
-0.205
-0.195
-0.18
-0.18
-0.185
-0.18
-0.17
-0.165
-0.17
-0.165
-0.16
-0.145
-0.135
-0.13
-0.105
-0.09
-0.075
-0.065
-0.055
-0.04
-0.04
-0.03
-0.005
0.015
0.025
0.045
0.045
0.05
0.04
0.03
0.005
-0.025
-0.06
-0.075
-0.06
-0.055
-0.02
-0.01
-0.005
-0.01
-0.01
-0.025
-0.04
-0.05
-0.07
-0.095
-0.115
-0.13
-0.13
-0.14
-0.14
-0.165
-0.17
-0.2
-0.22
-0.24
-0.23
-0.225
-0.215
-0.21
-0.205
-0.215
-0.23
-0.225
-0.22
-0.235
-0.24
-0.24
-0.23
-0.24
-0.24
-0.28
-0.305
-0.31
-0.32
-0.32
-0.315
-0.305
-0.3
-0.3
-0.295
-0.3
-0.315
-0.31
-0.305
-0.305
-0.31
-0.32
-0.33
-0.34
-0.345
-0.33
-0.325
-0.32
-0.325
-0.315
-0.315
-0.31
-0.285
-0.28
-0.27
-0.265
-0.26
-0.265
-0.27
-0.27
-0.27
-0.27
-0.27
-0.25
-0.24
-0.235
-0.24
-0.25
-0.26
-0.27
-0.27
-0.255
-0.245
-0.25
-0.245
-0.25
-0.27
-0.27
-0.27
-0.27
-0.27
-0.265
-0.25
-0.235
-0.225
-0.205
-0.21
-0.22
-0.22
-0.24
-0.235
-0.255
-0.26
-0.26
-0.27
-0.28
-0.285
-0.28
-0.265
-0.26
-0.245
-0.24
-0.23
-0.23
-0.225
-0.215
-0.215
-0.24
-0.25
-0.255
-0.25
-0.245
-0.215
-0.21
-0.19
-0.19
-0.185
-0.19
-0.205
-0.215
-0.235
-0.22
-0.205
-0.16
-0.11
-0.06
-0.02
0.02
0.06
0.09
0.185
0.295
0.395
0.455
0.4
0.295
0.055
-0.2
-0.4
-0.535
-0.605
-0.62
-0.595
-0.545
-0.51
-0.465
-0.445
-0.455
-0.465
-0.47
-0.48
-0.475
-0.445
-0.41
-0.38
-0.34
-0.34
-0.34
-0.37
-0.36
-0.365
-0.4
-0.415
-0.425
-0.415
-0.395
-0.35
-0.305
-0.27
-0.245
-0.225
-0.23
-0.22
-0.215
-0.215
-0.21
-0.215
-0.22
-0.215
-0.22
-0.23
-0.24
-0.25
-0.26
-0.26
-0.26
-0.25
-0.23
-0.21
-0.205
-0.225
-0.235
-0.265
-0.26
-0.26
-0.235
-0.195
-0.17
-0.16
-0.18
-0.2
-0.24
-0.275
-0.265
-0.245
-0.215
-0.18
-0.16
-0.15
-0.135
-0.13
-0.11
-0.095
-0.095
-0.08
-0.085
-0.1
-0.1
-0.11
-0.11
-0.11
-0.095
-0.075
-0.035
-0.01
0.04
0.06
0.055
0.015
-0.015
-0.03
-0.025
0.005
0.03
0.055
0.06
0.05
0.03
0.02
0.025
0.04
0.045
0.04
0.005
-0.03
-0.065
-0.08
-0.095
-0.09
-0.105
-0.105
-0.11
-0.105
-0.1
-0.1
-0.105
-0.09
-0.125
-0.15
-0.2
-0.235
-0.275
-0.29
-0.31
-0.29
-0.275
-0.245
-0.235
-0.205
-0.195
-0.195
-0.19
-0.195
-0.205
-0.225
-0.255
-0.27
-0.3
-0.31
-0.33
-0.31
-0.275
-0.24
-0.24
-0.215
-0.235
-0.24
-0.25
-0.255
-0.245
-0.255
-0.255
-0.27
-0.28
-0.265
-0.255
-0.24
-0.22
-0.2
-0.205
-0.22
-0.23
-0.245
-0.255
-0.25
-0.235
-0.23
-0.22
-0.225
-0.235
-0.25
-0.255
-0.27
-0.26
-0.265
-0.24
-0.235
-0.225
-0.23
-0.245
-0.25
-0.24
-0.23
-0.225
-0.225
-0.225
-0.23
-0.24
-0.24
-0.235
-0.235
-0.235
-0.225
-0.25
-0.27
-0.275
-0.28
-0.265
-0.245
-0.24
-0.215
-0.235
-0.255
-0.255
-0.25
-0.26
-0.27
-0.255
-0.27
-0.27
-0.275
-0.275
-0.26
-0.245
-0.235
-0.23
-0.24
-0.235
-0.25
-0.25
-0.265
-0.265
-0.275
-0.255
-0.25
-0.235
-0.22
-0.24
-0.245
-0.255
-0.26
-0.265
-0.265
-0.265
-0.26
-0.265
-0.27
-0.275
-0.255
-0.245
-0.235
-0.225
-0.225
-0.225
-0.23
-0.215
-0.21
-0.2
-0.225
-0.25
-0.275
-0.3
-0.315
-0.305
-0.3
-0.285
-0.295
-0.27
-0.265
-0.23
-0.215
-0.215
-0.2
-0.205
-0.22
-0.235
-0.255
-0.27
-0.31
-0.305
-0.315
-0.285
-0.255
-0.23
-0.21
-0.2
-0.19
-0.195
-0.2
-0.23
-0.26
-0.29
-0.305
-0.3
-0.29
-0.29
-0.275
-0.26
-0.24
-0.255
-0.235
-0.225
-0.2
-0.175
-0.165
-0.18
-0.225
-0.265
-0.285
-0.285
-0.275
-0.255
-0.255
-0.245
-0.245
-0.235
-0.22
-0.21
-0.21
-0.22
-0.24
-0.265
-0.265
-0.265
-0.27
-0.24
-0.225
-0.21
-0.215
-0.205
-0.22
-0.225
-0.24
-0.245
-0.245
-0.255
-0.26
-0.24
-0.24
-0.22
-0.21
-0.225
-0.24
-0.265
-0.255
-0.26
-0.275
-0.26
-0.255
-0.265
-0.25
-0.25
-0.24
-0.23
-0.23
-0.23
-0.225
-0.24
-0.235
-0.245
-0.245
-0.24
-0.24
-0.23
-0.23
-0.22
-0.23
-0.24
-0.24
-0.255
-0.25
-0.255
-0.255
-0.26
-0.255
-0.245
-0.23
-0.22
-0.215
-0.225
-0.23
-0.24
-0.245
-0.26
-0.265
-0.26
-0.26
-0.255
-0.25
-0.23
-0.23
-0.24
-0.24
-0.24
-0.245
-0.255
-0.255
-0.235
-0.23
-0.225
-0.215
-0.22
-0.22
-0.235
-0.235
-0.25
-0.245
-0.255
-0.255
-0.235
-0.215
-0.195
-0.195
-0.195
-0.205
-0.22
-0.225
-0.25
-0.255
-0.26
-0.25
-0.26
-0.255
-0.25
-0.24
-0.225
-0.21
-0.21
-0.2
-0.205
-0.225
-0.225
-0.24
-0.225
-0.23
-0.225
-0.235
-0.235
-0.235
-0.235
-0.22
-0.21
-0.205
-0.215
-0.215
-0.23
-0.24
-0.23
-0.235
-0.22
-0.235
-0.225
-0.22
-0.22
-0.215
-0.205
-0.195
-0.185
-0.17
-0.18
-0.205
-0.23
-0.235
-0.255
-0.26
-0.26
-0.24
-0.24
-0.24
-0.225
-0.215
-0.22
-0.21
-0.205
-0.2
-0.2
-0.21
-0.22
-0.24
-0.26
-0.27
-0.27
-0.26
-0.235
-0.225
-0.225
-0.235
-0.23
-0.22
-0.2
-0.19
-0.17
-0.185
-0.2
-0.23
-0.25
-0.275
-0.265
-0.255
-0.23
-0.21
-0.21
-0.205
-0.205
-0.205
-0.22
-0.205
-0.205
-0.205
-0.21
-0.205
-0.23
-0.22
-0.22
-0.215
-0.22
-0.225
-0.215
-0.225
-0.225
-0.2
-0.19
-0.185
-0.19
-0.185
-0.195
-0.21
-0.22
-0.24
-0.245
-0.225
-0.23
-0.225
-0.23
-0.25
-0.255
-0.25
-0.235
-0.225
-0.21
-0.19
-0.195
-0.18
-0.205
-0.2
-0.22
-0.21
-0.205
-0.195
-0.2
-0.22
-0.23
-0.24
-0.24
-0.23
-0.22
-0.21
-0.195
-0.18
-0.18
-0.175
-0.18
-0.2
-0.225
-0.245
-0.245
-0.235
-0.235
-0.23
-0.235
-0.225
-0.235
-0.215
-0.21
-0.2
-0.205
-0.215
-0.215
-0.205
-0.22
-0.225
-0.205
-0.215
-0.215
-0.22
-0.215
-0.21
-0.215
-0.21
-0.21
-0.23
-0.225
-0.21
-0.2
-0.205
-0.2
-0.195
-0.2
-0.195
-0.2
-0.19
-0.18
-0.175
-0.165
-0.17
-0.195
-0.21
-0.215
-0.2
-0.185
-0.15
-0.135
-0.115
-0.13
-0.135
-0.155
-0.175
-0.17
-0.15
-0.15
-0.135
-0.135
-0.135
-0.155
-0.17
-0.17
-0.18
-0.165
-0.165
-0.155
-0.135
-0.14
-0.14
-0.15
-0.165
-0.205
-0.22
-0.22
-0.225
-0.205
-0.195
-0.18
-0.175
-0.185
-0.205
-0.235
-0.27
-0.285
-0.295
-0.285
-0.265
-0.25
-0.23
-0.225
-0.21
-0.205
-0.205
-0.21
-0.215
-0.235
-0.245
-0.26
-0.26
-0.27
-0.255
-0.255
-0.245
-0.23
-0.215
-0.21
-0.2
-0.205
-0.19
-0.195
-0.21
-0.22
-0.25
-0.24
-0.235
-0.2
-0.155
-0.12
-0.075
-0.025
0.03
0.105
0.21
0.3
0.375
0.45
0.445
0.345
0.155
-0.115
-0.33
-0.5
-0.58
-0.59
-0.57
-0.535
-0.5
-0.48
-0.475
-0.465
-0.465
-0.475
-0.485
-0.49
-0.5
-0.495
-0.475
-0.445
-0.415
-0.395
-0.395
-0.42
-0.455
-0.445
-0.445
-0.44
-0.415
-0.39
-0.36
-0.335
-0.3
-0.26
-0.22
-0.225
-0.21
-0.22
-0.215
-0.225
-0.22
-0.22
-0.235
-0.24
-0.265
-0.255
-0.245
-0.235
-0.215
-0.215
-0.22
-0.225
-0.255
-0.275
-0.265
-0.245
-0.24
-0.205
-0.19
-0.19
-0.19
-0.19
-0.2
-0.225
-0.23
-0.23
-0.215
-0.21
-0.205
-0.2
-0.19
-0.2
-0.19
-0.19
-0.18
-0.16
-0.155
-0.15
-0.145
-0.145
-0.155
-0.145
-0.15
-0.155
-0.155
-0.16
-0.17
-0.17
-0.15
-0.125
-0.095
-0.075
-0.06
-0.04
-0.05
-0.055
-0.045
-0.045
-0.035
-0.03
-0.03
-0.02
-0.02
-0.015
0.0
0.005
0.02
0.015
0.0
0.015
0.015
0.025
0.015
0.01
0.0
-0.005
-0.015
-0.01
-0.015
-0.035
-0.025
-0.04
-0.04
-0.055
-0.07
-0.09
-0.12
-0.125
-0.115
-0.11
-0.095
-0.1
-0.105
-0.12
-0.14
-0.175
-0.185
-0.2
-0.195
-0.2
-0.195
-0.2
-0.175
-0.19
-0.19
-0.19
-0.205
-0.21
-0.185
-0.195
-0.195
-0.19
-0.18
-0.185
-0.19
-0.21
-0.22
-0.2
-0.185
-0.18
-0.19
-0.2
-0.21
-0.22
-0.24
-0.225
-0.205
-0.195
-0.185
-0.19
-0.19
-0.195
-0.205
-0.2
-0.205
-0.205
-0.19
-0.17
-0.18
-0.18
-0.17
-0.165
-0.17
-0.175
-0.175
-0.185
-0.185
-0.19
-0.205
-0.205
-0.2
-0.185
-0.165
-0.145
-0.145
-0.175
-0.21
-0.22
-0.23
-0.21
-0.185
-0.165
-0.155
-0.17
-0.195
-0.215
-0.22
-0.225
-0.225
-0.21
-0.205
-0.2
-0.195
-0.19
-0.195
-0.195
-0.195
-0.205
-0.195
-0.22
-0.225
-0.235
-0.23
-0.22
-0.205
-0.195
-0.21
-0.22
-0.22
-0.215
-0.205
-0.215
-0.21
-0.22
-0.23
-0.25
-0.255
-0.255
-0.255
-0.235
-0.22
-0.21
-0.2
-0.2
-0.215
-0.205
-0.21
-0.215
-0.225
-0.23
-0.225
-0.225
-0.21
-0.195
-0.19
-0.19
-0.22
-0.23
-0.25
-0.245
-0.235
-0.235
-0.225
-0.235
-0.225
-0.22
-0.205
-0.2
-0.2
-0.19
-0.205
-0.215
-0.235
-0.24
-0.245
-0.24
-0.235
-0.22
-0.205
-0.205
-0.205
-0.2
-0.21
-0.225
-0.24
-0.23
-0.24
-0.24
-0.235
-0.23
-0.235
-0.245
-0.235
-0.22
-0.21
-0.19
-0.185
-0.19
-0.2
-0.225
-0.25
-0.255
-0.26
-0.25
-0.255
-0.245
-0.23
-0.22
-0.23
-0.21
-0.195
-0.17
-0.14
-0.15
-0.185
-0.22
-0.255
-0.27
-0.28
-0.27
-0.27
-0.25
-0.23
-0.22
-0.215
-0.225
-0.23
-0.24
-0.24
-0.225
-0.22
-0.205
-0.19
-0.15
-0.145
-0.145
-0.175
-0.21
-0.26
-0.29
-0.3
-0.3
-0.29
-0.255
-0.22
-0.19
-0.18
-0.185
-0.18
-0.2
-0.2
-0.235
-0.26
-0.27
-0.275
-0.255
-0.225
-0.205
-0.185
-0.19
-0.2
-0.22
-0.24
-0.255
-0.265
-0.25
-0.25
-0.235
-0.215
-0.21
-0.195
-0.205
-0.21
-0.23
-0.25
-0.265
-0.26
-0.26
-0.235
-0.225
-0.21
-0.205
-0.2
-0.19
-0.18
-0.2
-0.235
-0.27
-0.285
-0.28
-0.27
-0.235
-0.21
-0.195
-0.19
-0.205
-0.195
-0.2
-0.205
-0.225
-0.23
-0.25
-0.25
-0.23
-0.255
-0.255
-0.265
-0.27
-0.25
-0.245
-0.24
-0.23
-0.23
-0.235
-0.235
-0.225
-0.215
-0.19
-0.19
-0.185
-0.195
-0.215
-0.245
-0.275
-0.275
-0.28
-0.265
-0.245
-0.225
-0.2
-0.185
-0.195
-0.195
-0.215
-0.24
-0.255
-0.265
-0.25
-0.25
-0.225
-0.215
-0.215
-0.21
-0.22
-0.225
-0.24
-0.24
-0.23
-0.23
-0.225
-0.225
-0.235
-0.23
-0.23
-0.215
-0.22
-0.235
-0.25
-0.24
-0.245
-0.24
-0.235
-0.225
-0.225
-0.22
-0.215
-0.21
-0.215
-0.205
-0.215
-0.225
-0.235
-0.245
-0.245
-0.245
-0.23
-0.22
-0.21
-0.205
-0.22
-0.245
-0.26
-0.265
-0.265
-0.255
-0.245
-0.23
-0.24
-0.24
-0.22
-0.225
-0.225
-0.22
-0.215
-0.225
-0.23
-0.245
-0.245
-0.24
-0.235
-0.245
-0.245
-0.24
-0.25
-0.235
-0.205
-0.2
-0.2
-0.205
-0.23
-0.245
-0.245
-0.235
-0.22
-0.205
-0.22
-0.22
-0.23
-0.24
-0.255
-0.245
-0.235
-0.235
-0.215
-0.215
-0.2
-0.205
-0.21
-0.215
-0.22
-0.225
-0.235
-0.22
-0.215
-0.22
-0.22
-0.22
-0.215
-0.225
-0.235
-0.245
-0.245
-0.255
-0.25
-0.245
-0.23
-0.21
-0.2
-0.195
-0.205
-0.21
-0.23
-0.25
-0.25
-0.26
-0.245
-0.24
-0.225
-0.215
-0.205
-0.2
-0.2
-0.19
-0.215
-0.215
-0.245
-0.25
-0.255
-0.25
-0.24
-0.245
-0.23
-0.24
-0.235
-0.225
-0.205
-0.19
-0.18
-0.185
-0.195
-0.195
-0.21
-0.215
-0.225
-0.24
-0.24
-0.225
-0.21
-0.215
-0.225
-0.245
-0.255
-0.25
-0.235
-0.2
-0.2
-0.19
-0.19
-0.2
-0.205
-0.22
-0.22
-0.225
-0.225
-0.225
-0.215
-0.21
-0.2
-0.22
-0.215
-0.205
-0.22
-0.21
-0.21
-0.2
-0.195
-0.19
-0.205
-0.195
-0.19
-0.19
-0.19
-0.185
-0.19
-0.2
-0.21
-0.215
-0.225
-0.235
-0.24
-0.225
-0.21
-0.2
-0.19
-0.18
-0.205
-0.205
-0.205
-0.205
-0.205
-0.21
-0.215
-0.235
-0.215
-0.215
-0.205
-0.18
-0.16
-0.165
-0.17
-0.185
-0.195
-0.205
-0.215
-0.215
-0.22
-0.195
-0.2
-0.19
-0.195
-0.19
-0.185
-0.185
-0.185
-0.18
-0.185
-0.175
-0.175
-0.17
-0.18
-0.165
-0.18
-0.175
-0.18
-0.205
-0.215
-0.225
-0.225
-0.21
-0.175
-0.155
-0.15
-0.15
-0.175
-0.18
-0.19
-0.2
-0.195
-0.175
-0.17
-0.185
-0.195
-0.215
-0.22
-0.205
-0.2
-0.19
-0.2
-0.19
-0.19
-0.19
-0.195
-0.21
-0.21
-0.225
-0.215
-0.195
-0.185
-0.155
-0.155
-0.17
-0.175
-0.19
-0.205
-0.215
-0.2
-0.2
-0.195
-0.195
-0.19
-0.19
-0.195
-0.175
-0.17
-0.18
-0.18
-0.165
-0.16
-0.165
-0.17
-0.19
-0.21
-0.205
-0.21
-0.21
-0.21
-0.22
-0.21
-0.21
-0.195
-0.195
-0.185
-0.165
-0.16
-0.155
-0.16
-0.17
-0.18
-0.185
-0.19
-0.19
-0.2
-0.22
-0.21
-0.195
-0.2
-0.195
-0.19
-0.205
-0.205
-0.195
-0.195
-0.2
-0.19
-0.2
-0.19
-0.19
-0.205
-0.195
-0.215
-0.215
-0.21
-0.205
-0.2
-0.175
-0.165
-0.16
-0.175
-0.19
-0.215
-0.215
-0.2
-0.195
-0.185
-0.165
-0.16
-0.14
-0.135
-0.155
-0.185
-0.2
-0.225
-0.215
-0.2
-0.18
-0.18
-0.18
-0.185
-0.19
-0.2
-0.2
-0.195
-0.185
-0.18
-0.175
-0.17
-0.175
-0.185
-0.19
-0.21
-0.205
-0.205
-0.195
-0.19
-0.175
-0.16
-0.17
-0.17
-0.175
-0.195
-0.22
-0.23
-0.235
-0.22
-0.2
-0.19
-0.175
-0.185
-0.195
-0.215
-0.23
-0.225
-0.25
-0.225
-0.21
-0.205
-0.18
-0.17
-0.16
-0.17
-0.17
-0.185
-0.21
-0.225
-0.23
-0.225
-0.22
-0.195
-0.205
-0.18
-0.17
-0.175
-0.15
-0.15
-0.15
-0.16
-0.19
-0.215
-0.23
-0.205
-0.21
-0.19
-0.205
-0.21
-0.205
-0.2
-0.19
-0.17
-0.155
-0.15
-0.155
-0.145
-0.14
-0.14
-0.13
-0.13
-0.105
-0.09
-0.09
-0.095
-0.105
-0.11
-0.125
-0.125
-0.135
-0.13
-0.13
-0.13
-0.125
-0.135
-0.14
-0.16
-0.155
-0.16
-0.155
-0.16
-0.17
-0.18
-0.17
-0.165
-0.16
-0.16
-0.17
-0.195
-0.2
-0.215
-0.225
-0.22
-0.23
-0.22
-0.195
-0.19
-0.185
-0.195
-0.205
-0.22
-0.235
-0.225
-0.22
-0.22
-0.21
-0.195
-0.19
-0.18
-0.19
-0.2
-0.205
-0.215
-0.225
-0.225
-0.22
-0.21
-0.205
-0.175
-0.14
-0.115
-0.09
-0.075
-0.08
-0.1
-0.1
-0.075
-0.025
0.06
0.155
0.255
0.32
0.315
0.23
0.05
-0.16
-0.345
-0.45
-0.49
-0.5
-0.49
-0.485
-0.46
-0.44
-0.41
-0.385
-0.39
-0.42
-0.47
-0.515
-0.49
-0.46
-0.415
-0.385
-0.36
-0.37
-0.385
-0.405
-0.42
-0.44
-0.445
-0.425
-0.38
-0.33
-0.27
-0.225
-0.195
-0.2
-0.215
-0.24
-0.25
-0.265
-0.265
-0.25
-0.23
-0.21
-0.2
-0.2
-0.195
-0.225
-0.24
-0.255
-0.245
-0.255
-0.24
-0.24
-0.235
-0.225
-0.21
-0.225
-0.205
-0.195
-0.18
-0.175
-0.19
-0.2
-0.22
-0.225
-0.21
-0.2
-0.2
-0.23
-0.255
-0.255
-0.25
-0.23
-0.215
-0.19
-0.175
-0.17
-0.16
-0.165
-0.175
-0.165
-0.165
-0.165
-0.18
-0.17
-0.18
-0.18
-0.19
-0.185
-0.18
-0.15
-0.13
-0.11
-0.085
-0.07
-0.06
-0.06
-0.065
-0.1
-0.1
-0.105
-0.095
-0.085
-0.085
-0.07
-0.065
-0.045
-0.04
-0.025
-0.015
-0.015
-0.01
-0.035
-0.055
-0.065
-0.075
-0.06
-0.05
-0.04
-0.05
-0.055
-0.075
-0.095
-0.125
-0.095
-0.095
-0.095
-0.085
-0.095
-0.09
-0.095
-0.1
-0.11
-0.125
-0.14
-0.145
-0.16
-0.16
-0.185
-0.19
-0.2
-0.2
-0.19
-0.175
-0.17
-0.155
-0.17
-0.185
-0.195
-0.19
-0.195
-0.22
-0.235
-0.225
-0.225
-0.22
-0.215
-0.23
-0.255
-0.27
-0.275
-0.25
-0.23
-0.21
-0.185
-0.17
-0.16
-0.15
-0.145
-0.145
-0.14
-0.16
-0.185
-0.2
-0.225
-0.215
-0.2
-0.185
-0.17
-0.175
-0.18
-0.185
-0.19
-0.2
-0.205
-0.195
-0.185
-0.16
-0.145
-0.12
-0.115
-0.13
-0.155
-0.18
-0.205
-0.23
-0.215
-0.225
-0.19
-0.185
-0.17
-0.145
-0.14
-0.13
-0.13
-0.14
-0.16
-0.19
-0.21
-0.2
-0.19
-0.175
-0.175
-0.175
-0.18
-0.205
-0.195
-0.19
-0.19
-0.2
-0.215
-0.23
-0.22
-0.21
-0.185
-0.16
-0.14
-0.145
-0.16
-0.195
-0.205
-0.22
-0.23
-0.24
-0.235
-0.23
-0.22
-0.23
-0.215
-0.21
-0.21
-0.18
-0.205
-0.195
-0.21
-0.205
-0.21
-0.21
-0.205
-0.215
-0.22
-0.225
-0.215
-0.21
-0.2
-0.2
-0.23
-0.24
-0.25
-0.245
-0.22
-0.2
-0.185
-0.215
-0.22
-0.23
-0.24
-0.23
-0.225
-0.195
-0.185
-0.17
-0.165
-0.19
-0.225
-0.245
-0.265
-0.255
-0.255
-0.24
-0.24
-0.22
-0.215
-0.215
-0.22
-0.21
-0.21
-0.215
-0.225
-0.22
-0.22
-0.225
-0.22
-0.225
-0.23
-0.215
-0.205
-0.21
-0.215
-0.2
-0.18
-0.195
-0.21
-0.225
-0.245
-0.25
-0.245
-0.24
-0.23
-0.235
-0.23
-0.245
-0.24
-0.23
-0.235
-0.235
-0.225
-0.225
-0.2
-0.185
-0.165
-0.15
-0.135
-0.135
-0.145
-0.16
-0.18
-0.17
-0.17
-0.19
-0.18
-0.17
-0.145
-0.13
-0.12
-0.105
-0.09
-0.105
-0.13
-0.16
-0.2
-0.225
-0.24
-0.23
-0.21
-0.18
-0.14
-0.13
-0.135
-0.18
-0.205
-0.225
-0.225
-0.225
-0.22
-0.225
-0.225
-0.22
-0.22
-0.235
-0.255
-0.275
-0.285
-0.28
-0.295
-0.275
-0.27
-0.25
-0.235
-0.215
-0.2
-0.215
-0.22
-0.235
-0.255
-0.265
-0.255
-0.225
-0.21
-0.215
-0.235
-0.28
-0.3
-0.33
-0.305
-0.285
-0.265
-0.23
-0.225
-0.225
-0.225
-0.215
-0.23
-0.23
-0.22
-0.2
-0.16
-0.095
-0.01
0.075
0.18
0.275
0.355
0.38
0.33
0.185
-0.035
-0.26
-0.415
-0.52
-0.555
-0.555
-0.535
-0.52
-0.49
-0.47
-0.45
-0.435
-0.425
-0.435
-0.455
-0.435
-0.415
-0.385
-0.37
-0.37
-0.415
-0.445
-0.46
-0.455
-0.44
-0.425
-0.4
-0.41
-0.39
-0.38
-0.38
-0.38
-0.365
-0.345
-0.305
-0.275
-0.25
-0.235
-0.225
-0.23
-0.24
-0.245
-0.255
-0.235
-0.225
-0.22
-0.21
-0.215
-0.22
-0.225
-0.225
-0.225
-0.235
-0.26
-0.27
-0.265
-0.26
-0.245
-0.235
-0.22
-0.23
-0.24
-0.235
-0.22
-0.23
-0.225
-0.225
-0.22
-0.205
-0.21
-0.21
-0.205
-0.2
-0.185
-0.175
-0.175
-0.185
-0.2
-0.205
-0.2
-0.195
-0.17
-0.155
-0.14
-0.125
-0.115
-0.095
-0.08
-0.085
-0.09
-0.12
-0.12
-0.095
-0.07
-0.04
-0.03
-0.005
-0.02
-0.035
-0.055
-0.06
-0.06
-0.065
-0.06
-0.045
-0.025
0.0
0.02
0.04
0.045
0.04
0.03
0.01
-0.005
-0.015
-0.025
-0.055
-0.07
-0.08
-0.085
-0.085
-0.1
-0.09
-0.09
-0.08
-0.11
-0.145
-0.155
-0.17
-0.165
-0.17
-0.18
-0.185
-0.195
-0.21
-0.225
-0.255
-0.27
-0.285
-0.295
-0.28
-0.255
-0.235
-0.235
-0.23
-0.245
-0.255
-0.28
-0.29
-0.31
-0.32
-0.31
-0.315
-0.295
-0.29
-0.29
-0.275
-0.28
-0.275
-0.275
-0.29
-0.3
-0.3
-0.265
-0.26
-0.225
-0.18
-0.15
-0.14
-0.145
-0.18
-0.225
-0.29
-0.315
-0.35
-0.325
-0.285
-0.245
-0.205
-0.175
-0.17
-0.19
-0.215
-0.225
-0.225
-0.22
-0.205
-0.195
-0.195
-0.205
-0.2
-0.2
-0.2
-0.205
-0.21
-0.215
-0.22
-0.225
-0.21
-0.205
-0.2
-0.2
-0.215
-0.235
-0.25
-0.255
-0.265
-0.26
-0.265
-0.26
-0.255
-0.25
-0.24
-0.195
-0.18
-0.215
-0.21
-0.24
-0.26
-0.26
-0.265
-0.26
-0.255
-0.245
-0.23
-0.225
-0.2
-0.2
-0.21
-0.23
-0.235
-0.25
-0.245
-0.22
-0.195
-0.175
-0.14
-0.075
0.005
0.11
0.19
0.255
0.315
0.315
0.265
0.13
-0.07
-0.285
-0.44
-0.535
-0.545
-0.51
-0.47
-0.455
-0.445
-0.435
-0.45
-0.44
-0.455
-0.485
-0.5
-0.475
-0.45
-0.41
-0.365
-0.35
-0.35
-0.36
-0.39
-0.45
-0.5
-0.52
-0.51
-0.47
-0.41
-0.345
-0.285
-0.25
-0.22
-0.225
-0.225
-0.23
-0.23
-0.225
-0.24
-0.245
-0.255
-0.275
-0.28
-0.29
-0.295
-0.27
-0.25
-0.235
-0.23
-0.22
-0.225
-0.23
-0.23
-0.255
-0.235
-0.23
-0.215
-0.2
-0.23
-0.23
-0.24
-0.245
-0.23
-0.205
-0.19
-0.18
-0.195
-0.2
-0.22
-0.215
-0.205
-0.22
-0.21
-0.205
-0.195
-0.19
-0.195
-0.175
-0.145
-0.14
-0.12
-0.12
-0.12
-0.11
-0.11
-0.095
-0.115
-0.12
-0.115
-0.08
-0.05
-0.035
-0.025
-0.02
-0.03
-0.03
-0.035
-0.025
-0.01
-0.005
0.0
0.015
0.015
0.015
0.005
-0.005
-0.01
-0.015
-0.01
-0.015
-0.03
-0.045
-0.075
-0.1
-0.115
-0.13
-0.15
-0.135
-0.14
-0.145
-0.14
-0.145
-0.16
-0.17
-0.19
-0.195
-0.21
-0.21
-0.22
-0.23
-0.255
-0.285
-0.29
-0.295
-0.285
-0.27
-0.255
-0.26
-0.26
-0.285
-0.29
-0.29
-0.27
-0.265
-0.26
-0.25
-0.24
-0.23
-0.24
-0.27
-0.28
-0.3
-0.295
-0.29
-0.275
-0.27
-0.27
-0.28
-0.27
-0.26
-0.27
-0.24
-0.21
-0.205
-0.205
-0.225
-0.245
-0.27
-0.3
-0.33
-0.325
-0.335
-0.315
-0.28
-0.25
-0.225
-0.21
-0.205
-0.2
-0.205
-0.215
-0.24
-0.255
-0.255
-0.255
-0.25
-0.23
-0.225
-0.195
-0.185
-0.2
-0.2
-0.215
-0.23
-0.25
-0.28
-0.285
-0.305
-0.3
-0.27
-0.25
-0.225
-0.205
-0.19
-0.22
-0.255
-0.275
-0.295
-0.29
-0.275
-0.255
-0.245
-0.245
-0.235
-0.24
-0.245
-0.265
-0.28
-0.285
-0.285
-0.275
-0.255
-0.24
-0.24
-0.235
-0.235
-0.24
-0.24
-0.25
-0.235
-0.23
-0.24
-0.235
-0.22
-0.205
-0.21
-0.205
-0.22
-0.235
-0.25
-0.265
-0.26
-0.255
-0.22
-0.205
-0.195
-0.155
-0.115
-0.035
0.035
0.135
0.225
0.28
0.245
0.105
-0.09
-0.305
-0.45
-0.535
-0.56
-0.545
-0.505
-0.47
-0.455
-0.445
-0.445
-0.445
-0.455
-0.465
-0.485
-0.495
-0.48
-0.45
-0.405
-0.39
-0.4
-0.41
-0.435
-0.47
-0.475
-0.485
-0.46
-0.44
-0.415
-0.38
-0.35
-0.3
-0.26
-0.24
-0.24
-0.265
-0.275
-0.285
-0.28
-0.26
-0.255
-0.24
-0.225
-0.24
-0.26
-0.27
-0.28
-0.27
-0.26
-0.25
-0.235
-0.22
-0.225
-0.23
-0.24
-0.25
-0.255
-0.26
-0.25
-0.235
-0.215
-0.215
-0.225
-0.25
-0.255
-0.27
-0.255
-0.25
-0.24
-0.235
-0.235
-0.225
-0.195
-0.18
-0.17
-0.165
-0.185
-0.225
-0.25
-0.255
-0.24
-0.23
-0.2
-0.165
-0.135
-0.13
-0.115
-0.1
-0.075
-0.05
-0.04
-0.08
-0.13
-0.165
-0.17
-0.145
-0.1
-0.075
-0.05
-0.06
-0.085
-0.1
-0.105
-0.1
-0.09
-0.07
-0.04
-0.03
-0.005
0.0
0.005
-0.015
-0.04
-0.055
-0.07
-0.065
-0.065
-0.06
-0.07
-0.085
-0.105
-0.12
-0.125
-0.12
-0.125
-0.125
-0.14
-0.155
-0.18
-0.21
-0.205
-0.21
-0.21
-0.205
-0.19
-0.2
-0.19
-0.21
-0.215
-0.235
-0.275
-0.28
-0.3
-0.3
-0.285
-0.26
-0.24
-0.215
-0.2
-0.195
-0.2
-0.225
-0.25
-0.285
-0.295
-0.31
-0.295
-0.295
-0.275
-0.245
-0.22
-0.195
-0.2
-0.2
-0.215
-0.235
-0.265
-0.265
-0.26
-0.24
-0.24
-0.22
-0.225
-0.22
-0.225
-0.225
-0.215
-0.205
-0.195
-0.18
-0.18
-0.195
-0.215
-0.23
-0.245
-0.245
-0.25
-0.24
-0.23
-0.22
-0.2
-0.17
-0.16
-0.17
-0.195
-0.235
-0.265
-0.275
-0.285
-0.285
-0.265
-0.265
-0.26
-0.24
-0.215
-0.215
-0.225
-0.22
-0.24
-0.25
-0.27
-0.26
-0.27
-0.265
-0.28
-0.28
-0.27
-0.265
-0.235
-0.205
-0.18
-0.175
-0.205
-0.235
-0.29
-0.315
-0.29
-0.265
-0.235
-0.23
-0.245
-0.265
-0.27
-0.295
-0.28
-0.26
-0.25
-0.235
-0.24
-0.23
-0.225
-0.22
-0.23
-0.26
-0.29
-0.295
-0.31
-0.295
-0.28
-0.265
-0.26
-0.26
-0.255
-0.25
-0.24
-0.24
-0.225
-0.24
-0.245
-0.25
-0.235
-0.23
-0.23
-0.235
-0.26
-0.28
-0.27
-0.27
-0.26
-0.265
-0.26
-0.265
-0.265
-0.27
-0.285
-0.29
-0.26
-0.255
-0.25
-0.26
-0.27
-0.29
-0.285
-0.295
-0.28
-0.255
-0.235
-0.23
-0.22
-0.22
-0.23
-0.235
-0.23
-0.24
-0.27
-0.28
-0.295
-0.295
-0.29
-0.275
-0.27
-0.27
-0.28
-0.25
-0.24
-0.225
-0.255
-0.265
-0.285
-0.305
-0.29
-0.28
-0.275
-0.255
-0.27
-0.26
-0.26
-0.255
-0.265
-0.27
-0.255
-0.26
-0.275
-0.28
-0.27
-0.255
-0.24
-0.225
-0.225
-0.22
-0.24
-0.26
-0.28
-0.29
-0.295
-0.285
-0.27
-0.255
-0.225
-0.2
-0.19
-0.2
-0.23
-0.26
-0.29
-0.295
-0.28
-0.255
-0.235
-0.215
-0.225
-0.245
-0.265
-0.285
-0.29
-0.29
-0.295
-0.29
-0.29
-0.28
-0.265
-0.25
-0.235
-0.22
-0.235
-0.24
-0.25
-0.255
-0.25
-0.24
-0.245
-0.24
-0.26
-0.285
-0.305
-0.285
-0.25
-0.235
-0.245
-0.26
-0.285
-0.315
-0.315
-0.32
-0.3
-0.275
-0.27
-0.26
-0.26
-0.26
-0.265
-0.27
-0.265
-0.27
-0.26
-0.26
-0.255
-0.26
-0.25
-0.24
-0.225
-0.245
-0.23
-0.245
-0.255
-0.27
-0.265
-0.265
-0.28
-0.27
-0.255
-0.24
-0.22
-0.21
-0.21
-0.22
-0.245
-0.285
-0.29
-0.29
-0.275
-0.26
-0.25
-0.25
-0.26
-0.28
-0.29
-0.3
-0.31
-0.305
-0.28
-0.265
-0.255
-0.25
-0.245
-0.245
-0.235
-0.245
-0.24
-0.25
-0.245
-0.245
-0.24
-0.245
-0.265
-0.27
-0.245
-0.24
-0.23
-0.22
-0.23
-0.24
-0.24
-0.24
-0.225
-0.24
-0.27
-0.3
-0.315
-0.305
-0.3
-0.28
-0.27
-0.25
-0.24
-0.245
-0.245
-0.255
-0.25
-0.245
-0.245
-0.255
-0.23
-0.22
-0.225
-0.225
-0.23
-0.25
-0.27
-0.27
-0.26
-0.25
-0.235
-0.23
-0.24
-0.25
-0.26
-0.27
-0.255
-0.265
-0.255
-0.255
-0.255
-0.235
-0.235
-0.225
-0.21
-0.2
-0.175
-0.195
-0.23
-0.27
-0.295
-0.31
-0.315
-0.29
-0.275
-0.26
-0.255
-0.245
-0.245
-0.235
-0.25
-0.245
-0.24
-0.245
-0.25
-0.25
-0.26
-0.245
-0.235
-0.225
-0.215
-0.225
-0.225
-0.23
-0.23
-0.23
-0.26
-0.245
-0.235
-0.215
-0.21
-0.23
-0.245
-0.27
-0.27
-0.26
-0.25
-0.255
-0.26
-0.255
-0.255
-0.245
-0.235
-0.235
-0.22
-0.225
-0.235
-0.235
-0.225
-0.23
-0.225
-0.225
-0.23
-0.235
-0.24
-0.245
-0.24
-0.25
-0.255
-0.24
-0.235
-0.23
-0.22
-0.225
-0.21
-0.21
-0.205
-0.19
-0.2
-0.2
-0.205
-0.225
-0.23
-0.23
-0.22
-0.215
-0.225
-0.235
-0.235
-0.23
-0.22
-0.21
-0.205
-0.215
-0.195
-0.2
-0.19
-0.175
-0.165
-0.16
-0.16
-0.16
-0.16
-0.17
-0.155
-0.145
-0.13
-0.12
-0.115
-0.115
-0.11
-0.12
-0.13
-0.155
-0.175
-0.185
-0.185
-0.2
-0.185
-0.18
-0.175
-0.18
-0.2
-0.2
-0.205
-0.205
-0.2
-0.19
-0.19
-0.185
-0.2
-0.195
-0.205
-0.205
-0.215
-0.2
-0.21
-0.23
-0.25
-0.26
-0.28
-0.265
-0.255
-0.24
-0.22
-0.19
-0.175
-0.17
-0.19
-0.21
-0.225
-0.265
-0.27
-0.275
-0.265
-0.23
-0.2
-0.21
-0.195
-0.185
-0.18
-0.165
-0.175
-0.16
-0.16
-0.125
-0.07
0.025
0.135
0.235
0.315
0.37
0.32
0.18
-0.01
-0.22
-0.39
-0.465
-0.515
-0.49
-0.455
-0.43
-0.39
-0.375
-0.375
-0.385
-0.41
-0.44
-0.44
-0.45
-0.435
-0.42
-0.4
-0.375
-0.355
-0.35
-0.355
-0.375
-0.385
-0.41
-0.41
-0.41
-0.39
-0.375
-0.34
-0.285
-0.255
-0.24
-0.225
-0.21
-0.205
-0.2
-0.2
-0.205
-0.215
-0.23
-0.225
-0.23
-0.23
-0.21
-0.205
-0.205
-0.19
-0.18
-0.175
-0.18
-0.185
-0.2
-0.22
-0.22
-0.21
-0.21
-0.2
-0.195
-0.205
-0.205
-0.21
-0.195
-0.195
-0.18
-0.18
-0.18
-0.17
-0.16
-0.175
-0.17
-0.16
-0.16
-0.175
-0.19
-0.185
-0.175
-0.145
-0.13
-0.115
-0.1
-0.09
-0.115
-0.125
-0.13
-0.125
-0.12
-0.09
-0.06
-0.025
0.005
-0.015
-0.03
-0.06
-0.075
-0.08
-0.08
-0.065
-0.05
-0.03
-0.015
0.005
0.02
0.015
0.035
0.025
0.01
0.01
-0.015
-0.01
-0.02
-0.015
-0.015
-0.005
0.01
0.02
0.035
0.025
0.015
-0.02
-0.05
-0.08
-0.09
-0.105
-0.12
-0.125
-0.125
-0.13
-0.11
-0.115
-0.12
-0.135
-0.165
-0.18
-0.195
-0.195
-0.185
-0.175
-0.165
-0.165
-0.185
-0.21
-0.235
-0.235
-0.23
-0.23
-0.22
-0.235
-0.23
-0.215
-0.185
-0.175
-0.185
-0.215
-0.25
-0.255
-0.245
-0.22
-0.22
-0.2
-0.19
-0.175
-0.165
-0.145
-0.135
-0.125
-0.145
-0.145
-0.16
-0.175
-0.18
-0.19
-0.18
-0.175
-0.15
-0.125
-0.1
-0.1
-0.105
-0.115
-0.135
-0.155
-0.155
-0.16
-0.17
-0.175
-0.17
-0.19
-0.205
-0.225
-0.23
-0.22
-0.215
-0.205
-0.18
-0.16
-0.14
-0.135
-0.13
-0.145
-0.155
-0.165
-0.175
-0.18
-0.215
-0.205
-0.195
-0.17
-0.165
-0.15
-0.145
-0.155
-0.165
-0.19
-0.21
-0.2
-0.215
-0.205
-0.215
-0.22
-0.215
-0.21
-0.2
-0.17
-0.145
-0.13
-0.135
-0.15
-0.175
-0.19
-0.19
-0.135
-0.06
0.065
0.185
0.31
0.41
0.49
0.515
0.485
0.36
0.135
-0.11
-0.325
-0.465
-0.515
-0.515
-0.475
-0.425
-0.385
-0.345
-0.335
-0.35
-0.375
-0.405
-0.44
-0.46
-0.445
-0.415
-0.37
-0.335
-0.31
-0.295
-0.295
-0.31
-0.34
-0.35
-0.36
-0.36
-0.365
-0.36
-0.335
-0.295
-0.25
-0.225
-0.2
-0.195
-0.185
-0.19
-0.205
-0.205
-0.21
-0.205
-0.21
-0.205
-0.19
-0.185
-0.18
-0.19
-0.2
-0.22
-0.23
-0.23
-0.21
-0.19
-0.16
-0.15
-0.165
-0.175
-0.175
-0.175
-0.17
-0.16
-0.155
-0.155
-0.145
-0.125
-0.115
-0.115
-0.13
-0.17
-0.21
-0.2
-0.185
-0.14
-0.12
-0.085
-0.08
-0.1
-0.125
-0.12
-0.105
-0.085
-0.07
-0.06
-0.04
-0.055
-0.055
-0.07
-0.06
-0.03
0.005
0.04
0.055
0.035
0.015
-0.005
-0.015
-0.005
0.015
0.03
0.065
0.08
0.07
0.06
0.05
0.045
0.045
0.04
0.05
0.045
0.04
0.04
0.05
0.045
0.04
0.025
0.015
-0.005
-0.02
-0.02
-0.025
-0.04
-0.065
-0.09
-0.11
-0.125
-0.13
-0.11
-0.12
-0.13
-0.155
-0.18
-0.2
-0.195
-0.19
-0.195
-0.18
-0.175
-0.2
-0.2
-0.22
-0.23
-0.215
-0.215
-0.22
-0.23
-0.245
-0.245
-0.24
-0.23
-0.225
-0.205
-0.195
-0.185
-0.2
-0.215
-0.225
-0.225
-0.22
-0.195
-0.195
-0.175
-0.18
-0.175
-0.195
-0.235
-0.255
-0.28
-0.285
-0.27
-0.265
-0.25
-0.235
-0.225
-0.22
-0.205
-0.22
-0.24
-0.24
-0.26
-0.265
-0.255
-0.235
-0.235
-0.23
-0.235
-0.225
-0.21
-0.185
-0.175
-0.16
-0.18
-0.2
-0.225
-0.235
-0.225
-0.22
-0.205
-0.175
-0.165
-0.165
-0.175
-0.205
-0.245
-0.26
-0.26
-0.255
-0.23
-0.21
-0.21
-0.215
-0.21
-0.21
-0.215
-0.215
-0.21
-0.215
-0.22
-0.22
-0.225
-0.24
-0.245
-0.24
-0.23
-0.225
-0.22
-0.21
-0.195
-0.18
-0.18
-0.18
-0.195
-0.205
-0.195
-0.195
-0.195
-0.21
-0.245
-0.26
-0.285
-0.285
-0.27
-0.255
-0.235
-0.235
-0.235
-0.24
-0.225
-0.22
-0.2
-0.18
-0.18
-0.18
-0.195
-0.2
-0.205
-0.195
-0.18
-0.165
-0.135
-0.07
0.01
0.12
0.24
0.35
0.44
0.5
0.515
0.44
0.27
0.015
-0.22
-0.4
-0.515
-0.56
-0.575
-0.565
-0.555
-0.535
-0.5
-0.46
-0.435
-0.43
-0.45
-0.465
-0.48
-0.47
-0.45
-0.41
-0.375
-0.355
-0.35
-0.36
-0.375
-0.38
-0.385
-0.39
-0.42
-0.415
-0.425
-0.415
-0.395
-0.355
-0.315
-0.275
-0.22
-0.21
-0.19
-0.185
-0.195
-0.2
-0.205
-0.205
-0.225
-0.24
-0.25
-0.26
-0.26
-0.25
-0.245
-0.245
-0.23
-0.235
-0.23
-0.24
-0.24
-0.235
-0.24
-0.23
-0.21
-0.215
-0.19
-0.185
-0.155
-0.155
-0.145
-0.16
-0.18
-0.21
-0.22
-0.235
-0.23
-0.23
-0.21
-0.195
-0.175
-0.15
-0.15
-0.15
-0.15
-0.155
-0.18
-0.17
-0.17
-0.155
-0.125
-0.105
-0.075
-0.06
-0.045
-0.05
-0.06
-0.055
-0.045
-0.04
-0.02
-0.01
0.005
0.005
0.01
0.015
0.025
0.025
0.005
-0.015
-0.02
-0.015
-0.015
0.005
0.01
0.01
-0.015
0.0
-0.015
-0.005
0.0
-0.01
-0.02
-0.04
-0.04
-0.045
-0.045
-0.07
-0.11
-0.145
-0.18
-0.19
-0.175
-0.18
-0.165
-0.165
-0.17
-0.175
-0.165
-0.145
-0.155
-0.17
-0.205
-0.25
-0.27
-0.27
-0.265
-0.25
-0.23
-0.225
-0.215
-0.215
-0.245
-0.275
-0.3
-0.31
-0.295
-0.275
-0.255
-0.23
-0.2
-0.18
-0.19
-0.215
-0.24
-0.28
-0.305
-0.33
-0.335
-0.33
-0.325
-0.29
-0.265
-0.245
-0.235
-0.24
-0.265
-0.27
-0.28
-0.28
-0.27
-0.265
-0.255
-0.25
-0.25
-0.245
-0.22
-0.215
-0.2
-0.2
-0.22
-0.245
-0.26
-0.265
-0.255
-0.245
-0.23
-0.215
-0.205
-0.225
-0.21
-0.215
-0.22
-0.225
-0.235
-0.245
-0.25
-0.27
-0.27
-0.27
-0.255
-0.225
-0.225
-0.22
-0.235
-0.245
-0.26
-0.28
-0.305
-0.3
-0.28
-0.27
-0.235
-0.22
-0.225
-0.225
-0.23
-0.23
-0.24
-0.255
-0.265
-0.27
-0.26
-0.245
-0.24
-0.22
-0.235
-0.26
-0.265
-0.275
-0.265
-0.26
-0.25
-0.215
-0.2
-0.195
-0.2
-0.2
-0.21
-0.205
-0.225
-0.215
-0.22
-0.21
-0.195
-0.185
-0.17
-0.16
-0.12
-0.045
0.075
0.205
0.31
0.41
0.475
0.495
0.43
0.25
0.025
-0.215
-0.41
-0.545
-0.61
-0.625
-0.6
-0.575
-0.52
-0.48
-0.445
-0.45
-0.46
-0.475
-0.495
-0.495
-0.475
-0.45
-0.415
-0.425
-0.435
-0.44
-0.44
-0.445
-0.43
-0.43
-0.41
-0.41
-0.4
-0.375
-0.335
-0.29
-0.26
-0.245
-0.235
-0.23
-0.22
-0.205
-0.2
-0.21
-0.215
-0.22
-0.24
-0.265
-0.305
-0.315
-0.305
-0.275
-0.25
-0.22
-0.225
-0.23
-0.235
-0.23
-0.23
-0.225
-0.23
-0.24
-0.235
-0.24
-0.245
-0.24
-0.225
-0.2
-0.185
-0.175
-0.185
-0.19
-0.21
-0.19
-0.185
-0.17
-0.16
-0.155
-0.145
-0.13
-0.115
-0.1
-0.105
-0.105
-0.135
-0.165
-0.175
-0.175
-0.15
-0.115
-0.08
-0.06
-0.035
-0.025
-0.03
-0.045
-0.03
-0.03
-0.02
-0.02
-0.02
-0.025
-0.015
0.0
0.005
0.015
0.025
0.02
0.01
0.01
-0.01
-0.01
0.01
0.015
0.02
-0.01
-0.035
-0.08
-0.11
-0.13
-0.135
-0.135
-0.125
-0.13
-0.16
-0.195
-0.215
-0.23
-0.22
-0.205
-0.2
-0.185
-0.195
-0.17
-0.16
-0.17
-0.19
-0.22
-0.245
-0.28
-0.315
-0.33
-0.345
-0.34
-0.33
-0.3
-0.27
-0.25
-0.24
-0.225
-0.23
-0.24
-0.265
-0.28
-0.295
-0.29
-0.3
-0.295
-0.3
-0.295
-0.28
-0.265
-0.255
-0.22
-0.225
-0.24
-0.285
-0.33
-0.365
-0.37
-0.35
-0.315
-0.28
-0.25
-0.23
-0.235
-0.245
-0.26
-0.28
-0.265
-0.265
-0.255
-0.24
-0.235
-0.235
-0.24
-0.24
-0.235
-0.235
-0.225
-0.21
-0.21
-0.22
-0.225
-0.265
-0.28
-0.29
-0.275
-0.25
-0.245
-0.24
-0.24
-0.255
-0.275
-0.305
-0.32
-0.315
-0.31
-0.29
-0.27
-0.245
-0.245
-0.235
-0.235
-0.25
-0.275
-0.27
-0.26
-0.25
-0.235
-0.215
-0.205
-0.205
-0.225
-0.24
-0.27
-0.275
-0.285
-0.265
-0.265
-0.27
-0.285
-0.265
-0.25
-0.235
-0.235
-0.235
-0.265
-0.29
-0.31
-0.305
-0.285
-0.245
-0.235
-0.205
-0.195
-0.185
-0.175
-0.17
-0.15
-0.095
-0.01
0.095
0.205
0.32
0.42
0.465
0.435
0.3
0.085
-0.165
-0.395
-0.565
-0.655
-0.68
-0.68
-0.655
-0.605
-0.57
-0.54
-0.51
-0.47
-0.475
-0.48
-0.49
-0.48
-0.47
-0.44
-0.42
-0.39
-0.395
-0.4
-0.4
-0.41
-0.425
-0.45
-0.455
-0.445
-0.425
-0.39
-0.345
-0.295
-0.27
-0.245
-0.235
-0.245
-0.255
-0.27
-0.295
-0.325
-0.33
-0.335
-0.32
-0.3
-0.275
-0.26
-0.25
-0.26
-0.265
-0.27
-0.275
-0.27
-0.26
-0.26
-0.24
-0.23
-0.225
-0.24
-0.265
-0.27
-0.26
-0.255
-0.25
-0.265
-0.265
-0.26
-0.245
-0.225
-0.215
-0.215
-0.215
-0.2
-0.185
-0.18
-0.19
-0.2
-0.23
-0.225
-0.215
-0.205
-0.19
-0.175
-0.16
-0.145
-0.145
-0.12
-0.125
-0.125
-0.105
-0.1
-0.08
-0.075
-0.06
-0.03
-0.015
-0.015
-0.025
-0.035
-0.045
-0.07
-0.05
-0.045
-0.03
-0.02
-0.01
-0.02
-0.01
-0.01
-0.02
-0.025
-0.03
-0.045
-0.06
-0.09
-0.095
-0.11
-0.13
-0.16
-0.155
-0.17
-0.175
-0.17
-0.17
-0.2
-0.21
-0.215
-0.2
-0.215
-0.22
-0.23
-0.24
-0.265
-0.26
-0.25
-0.245
-0.24
-0.255
-0.265
-0.27
-0.275
-0.295
-0.32
-0.31
-0.315
-0.315
-0.305
-0.31
-0.31
-0.305
-0.305
-0.28
-0.27
-0.245
-0.24
-0.245
-0.26
-0.29
-0.315
-0.345
-0.37
-0.395
-0.39
-0.385
-0.36
-0.32
-0.295
-0.275
-0.28
-0.285
-0.3
-0.315
-0.34
-0.35
-0.33
-0.295
-0.27
-0.255
-0.235
-0.22
-0.215
-0.22
-0.235
-0.245
-0.27
-0.3
-0.3
-0.285
-0.28
-0.275
-0.265
-0.27
-0.27
-0.26
-0.255
-0.27
-0.29
-0.28
-0.285
-0.3
-0.315
-0.305
-0.305
-0.3
-0.285
-0.265
-0.24
-0.23
-0.23
-0.24
-0.27
-0.29
-0.31
-0.325
-0.32
-0.29
-0.28
-0.255
-0.24
-0.22
-0.235
-0.26
-0.295
-0.32
-0.32
-0.32
-0.315
-0.3
-0.285
-0.275
-0.27
-0.27
-0.26
-0.26
-0.255
-0.24
-0.24
-0.24
-0.24
-0.24
-0.235
-0.23
-0.225
-0.215
-0.22
-0.205
-0.18
-0.13
-0.025
0.07
0.175
0.285
0.34
0.325
0.215
0.015
-0.21
-0.435
-0.565
-0.63
-0.615
-0.58
-0.53
-0.49
-0.445
-0.445
-0.43
-0.455
-0.47
-0.505
-0.53
-0.525
-0.48
-0.425
-0.37
-0.345
-0.375
-0.42
-0.47
-0.495
-0.51
-0.47
-0.44
-0.38
-0.325
-0.29
-0.25
-0.235
-0.245
-0.26
-0.27
-0.28
-0.28
-0.295
-0.285
-0.275
-0.275
-0.27
-0.265
-0.265
-0.265
-0.265
-0.255
-0.26
-0.26
-0.29
-0.31
-0.305
-0.315
-0.295
-0.26
-0.21
-0.18
-0.175
-0.195
-0.225
-0.255
-0.31
-0.33
-0.335
-0.305
-0.27
-0.24
-0.21
-0.17
-0.15
-0.14
-0.155
-0.165
-0.195
-0.21
-0.215
-0.205
-0.205
-0.2
-0.18
-0.16
-0.13
-0.125
-0.095
-0.085
-0.075
-0.065
-0.065
-0.065
-0.08
-0.09
-0.095
-0.1
-0.085
-0.055
-0.02
0.01
0.015
0.025
0.045
0.04
0.03
0.025
-0.02
-0.055
-0.09
-0.09
-0.1
-0.1
-0.09
-0.09
-0.08
-0.07
-0.07
-0.075
-0.065
-0.065
-0.09
-0.13
-0.19
-0.25
-0.29
-0.31
-0.31
-0.305
-0.275
-0.26
-0.24
-0.215
-0.225
-0.22
-0.235
-0.235
-0.235
-0.22
-0.195
-0.185
-0.195
-0.22
-0.265
-0.325
-0.375
-0.39
-0.39
-0.37
-0.335
-0.285
-0.275
-0.265
-0.255
-0.24
-0.23
-0.215
-0.215
-0.205
-0.24
-0.275
-0.315
-0.35
-0.37
-0.39
-0.385
-0.375
-0.35
-0.305
-0.3
-0.26
-0.25
-0.26
-0.275
-0.3
-0.31
-0.32
-0.295
-0.285
-0.275
-0.25
-0.225
-0.225
-0.225
-0.22
-0.235
-0.26
-0.275
-0.305
-0.285
-0.28
-0.26
-0.225
-0.21
-0.195
-0.19
-0.2
-0.25
-0.29
-0.325
-0.335
-0.325
-0.31
-0.27
-0.24
-0.225
-0.21
-0.21
-0.235
-0.25
-0.27
-0.275
-0.27
-0.255
-0.24
-0.235
-0.24
-0.26
-0.255
-0.275
-0.29
-0.295
-0.28
-0.285
-0.255
-0.255
-0.25
-0.23
-0.22
-0.22
-0.225
-0.24
-0.255
-0.26
-0.26
-0.27
-0.25
-0.245
-0.24
-0.245
-0.24
-0.24
-0.23
-0.255
-0.24
-0.26
-0.245
-0.22
-0.205
-0.16
-0.115
-0.045
0.03
0.115
0.195
0.245
0.285
0.27
0.21
0.05
-0.17
-0.375
-0.515
-0.575
-0.6
-0.575
-0.53
-0.495
-0.46
-0.44
-0.45
-0.475
-0.51
-0.53
-0.545
-0.51
-0.47
-0.42
-0.38
-0.35
-0.35
-0.38
-0.395
-0.415
-0.435
-0.445
-0.44
-0.41
-0.38
-0.35
-0.305
-0.28
-0.255
-0.24
-0.23
-0.225
-0.225
-0.215
-0.22
-0.21
-0.22
-0.23
-0.215
-0.205
-0.21
-0.225
-0.24
-0.265
-0.265
-0.25
-0.24
-0.215
-0.21
-0.215
-0.22
-0.225
-0.24
-0.225
-0.225
-0.21
-0.21
-0.18
-0.17
-0.17
-0.165
-0.175
-0.19
-0.205
-0.21
-0.205
-0.205
-0.195
-0.195
-0.19
-0.175
-0.14
-0.115
-0.1
-0.085
-0.1
-0.11
-0.12
-0.13
-0.11
-0.105
-0.09
-0.055
-0.025
0.0
0.015
0.025
0.025
0.0
-0.025
-0.03
-0.04
-0.025
0.005
0.04
0.07
0.08
0.065
0.045
0.01
-0.02
-0.045
-0.05
-0.04
-0.04
-0.04
-0.03
-0.025
-0.03
-0.05
-0.07
-0.085
-0.1
-0.11
-0.1
-0.1
-0.13
-0.16
-0.195
-0.205
-0.205
-0.2
-0.2
-0.195
-0.18
-0.195
-0.21
-0.23
-0.235
-0.235
-0.23
-0.22
-0.225
-0.23
-0.23
-0.25
-0.255
-0.265
-0.255
-0.235
-0.23
-0.235
-0.23
-0.23
-0.23
-0.225
-0.235
-0.25
-0.27
-0.28
-0.285
-0.275
-0.265
-0.275
-0.285
-0.285
-0.275
-0.265
-0.255
-0.27
-0.28
-0.3
-0.295
-0.275
-0.265
-0.245
-0.235
-0.225
-0.225
-0.23
-0.22
-0.235
-0.225
-0.24
-0.235
-0.23
-0.22
-0.195
-0.185
-0.175
-0.195
-0.23
-0.23
-0.24
-0.245
-0.23
-0.2
-0.19
-0.18
-0.185
-0.21
-0.25
-0.29
-0.31
-0.31
-0.28
-0.245
-0.205
-0.165
-0.15
-0.15
-0.165
-0.2
-0.23
-0.25
-0.255
-0.25
-0.235
-0.205
-0.185
-0.19
-0.19
-0.22
-0.23
-0.25
-0.23
-0.2
-0.175
-0.16
-0.19
-0.235
-0.26
-0.265
-0.245
-0.225
-0.21
-0.185
-0.18
-0.185
-0.195
-0.22
-0.235
-0.23
-0.225
-0.23
-0.215
-0.21
-0.2
-0.205
-0.185
-0.195
-0.18
-0.175
-0.14
-0.11
-0.08
-0.035
0.015
0.105
0.215
0.315
0.415
0.48
0.495
0.46
0.325
0.12
-0.11
-0.3
-0.435
-0.515
-0.55
-0.555
-0.55
-0.545
-0.52
-0.505
-0.465
-0.445
-0.43
-0.445
-0.455
-0.475
-0.44
-0.415
-0.37
-0.34
-0.35
-0.365
-0.385
-0.415
-0.42
-0.415
-0.385
-0.365
-0.325
-0.305
-0.29
-0.295
-0.325
-0.315
-0.33
-0.325
-0.31
-0.29
-0.27
-0.24
-0.21
-0.205
-0.2
-0.22
-0.235
-0.255
-0.25
-0.245
-0.22
-0.215
-0.215
-0.22
-0.235
-0.25
-0.23
-0.215
-0.205
-0.215
-0.23
-0.23
-0.24
-0.225
-0.205
-0.185
-0.165
-0.16
-0.155
-0.175
-0.195
-0.195
-0.19
-0.18
-0.18
-0.16
-0.165
-0.155
-0.155
-0.145
-0.145
-0.17
-0.185
-0.175
-0.15
-0.11
-0.07
-0.06
-0.055
-0.055
-0.07
-0.035
-0.01
0.005
0.005
0.02
0.035
0.045
0.055
0.065
0.06
0.06
0.04
0.045
0.035
0.03
0.015
-0.005
-0.025
-0.045
-0.06
-0.07
-0.06
-0.065
-0.04
-0.06
-0.075
-0.095
-0.1
-0.115
-0.135
-0.15
-0.18
-0.215
-0.23
-0.245
-0.235
-0.22
-0.185
-0.18
-0.185
-0.205
-0.215
-0.24
-0.255
-0.26
-0.255
-0.28
-0.3
-0.31
-0.33
-0.325
-0.295
-0.26
-0.225
-0.215
-0.255
-0.265
-0.3
-0.325
-0.34
-0.345
-0.34
-0.32
-0.28
-0.265
-0.25
-0.24
-0.235
-0.23
-0.25
-0.3
-0.33
-0.345
-0.335
-0.305
-0.28
-0.27
-0.28
-0.29
-0.285
-0.27
-0.25
-0.27
-0.305
-0.325
-0.33
-0.315
-0.285
-0.255
-0.235
-0.235
-0.24
-0.245
-0.25
-0.255
-0.27
-0.275
-0.275
-0.28
-0.28
-0.285
-0.27
-0.26
-0.26
-0.265
-0.275
-0.305
-0.335
-0.34
-0.32
-0.29
-0.26
-0.22
-0.205
-0.21
-0.225
-0.24
-0.265
-0.305
-0.33
-0.34
-0.335
-0.335
-0.315
-0.29
-0.29
-0.27
-0.255
-0.255
-0.255
-0.28
-0.29
-0.305
-0.3
-0.305
-0.285
-0.27
-0.255
-0.24
-0.23
-0.23
-0.26
-0.285
-0.315
-0.325
-0.32
-0.305
-0.29
-0.275
-0.27
-0.27
-0.265
-0.265
-0.26
-0.26
-0.265
-0.235
-0.205
-0.19
-0.17
-0.15
-0.13
-0.105
-0.08
-0.02
0.08
0.19
0.32
0.405
0.44
0.375
0.215
-0.03
-0.28
-0.48
-0.595
-0.63
-0.635
-0.605
-0.57
-0.545
-0.54
-0.515
-0.5
-0.505
-0.535
-0.56
-0.55
-0.535
-0.52
-0.485
-0.455
-0.44
-0.43
-0.44
-0.455
-0.455
-0.455
-0.44
-0.425
-0.4
-0.385
-0.355
-0.345
-0.32
-0.3
-0.27
-0.265
-0.26
-0.25
-0.245
-0.24
-0.25
-0.28
-0.315
-0.32
-0.305
-0.27
-0.26
-0.275
-0.31
-0.335
-0.365
-0.345
-0.31
-0.285
-0.28
-0.265
-0.28
-0.275
-0.28
-0.27
-0.27
-0.265
-0.225
-0.205
-0.185
-0.17
-0.22
-0.275
-0.325
-0.315
-0.29
-0.255
-0.215
-0.19
-0.175
-0.195
-0.225
-0.245
-0.24
-0.22
-0.185
-0.16
-0.14
-0.135
-0.145
-0.16
-0.18
-0.185
-0.165
-0.135
-0.095
-0.045
-0.01
0.015
0.03
0.015
-0.01
-0.035
-0.05
-0.05
-0.05
-0.035
-0.025
-0.015
-0.01
0.005
0.025
0.02
0.005
-0.035
-0.085
-0.12
-0.135
-0.115
-0.105
-0.105
-0.11
-0.105
-0.125
-0.135
-0.155
-0.185
-0.21
-0.24
-0.27
-0.27
-0.265
-0.26
-0.26
-0.255
-0.25
-0.25
-0.24
-0.265
-0.295
-0.33
-0.355
-0.365
-0.37
-0.365
-0.365
-0.335
-0.33
-0.33
-0.335
-0.325
-0.31
-0.305
-0.305
-0.305
-0.32
-0.33
-0.315
-0.295
-0.295
-0.295
-0.31
-0.345
-0.37
-0.38
-0.365
-0.36
-0.35
-0.345
-0.34
-0.345
-0.365
-0.385
-0.395
-0.4
-0.41
-0.395
-0.38
-0.365
-0.345
-0.335
-0.32
-0.325
-0.335
-0.33
-0.32
-0.33
-0.33
-0.36
-0.365
-0.34
-0.315
-0.265
-0.26
-0.235
-0.255
-0.285
-0.32
-0.345
-0.37
-0.37
-0.35
-0.335
-0.325
-0.315
-0.31
-0.315
-0.37
-0.39
-0.405
-0.38
-0.36
-0.34
-0.3
-0.285
-0.29
-0.29
-0.285
-0.285
-0.29
-0.305
-0.315
-0.32
-0.305
-0.29
-0.28
-0.28
-0.295
-0.33
-0.335
-0.33
-0.33
-0.31
-0.28
-0.28
-0.275
-0.295
-0.315
-0.32
-0.33
-0.34
-0.34
-0.32
-0.33
-0.325
-0.31
-0.3
-0.3
-0.29
-0.285
-0.29
-0.295
-0.3
-0.32
-0.31
-0.295
-0.3
-0.265
-0.255
-0.225
-0.215
-0.15
-0.1
-0.005
0.11
0.245
0.38
0.485
0.535
0.515
0.355
0.085
-0.205
-0.47
-0.635
-0.725
-0.73
-0.695
-0.645
-0.585
-0.55
-0.53
-0.55
-0.58
-0.605
-0.61
-0.59
-0.555
-0.495
-0.45
-0.415
-0.42
-0.44
-0.45
-0.475
-0.48
-0.49
-0.495
-0.48
-0.47
-0.46
-0.435
-0.385
-0.33
-0.285
-0.245
-0.225
-0.215
-0.235
-0.255
-0.285
-0.33
-0.365
-0.375
-0.35
-0.32
-0.295
-0.275
-0.275
-0.29
-0.3
-0.305
-0.31
-0.305
-0.29
-0.28
-0.245
-0.23
-0.225
-0.245
-0.265
-0.28
-0.29
-0.285
-0.265
-0.245
-0.24
-0.23
-0.245
-0.265
-0.285
-0.285
-0.285
-0.27
-0.245
-0.215
-0.19
-0.19
-0.17
-0.18
-0.175
-0.16
-0.135
-0.105
-0.105
-0.13
-0.13
-0.135
-0.12
-0.125
-0.115
-0.105
-0.085
-0.065
-0.045
-0.03
-0.03
-0.04
-0.05
-0.055
-0.035
-0.03
-0.01
0.0
-0.01
-0.015
-0.03
-0.035
-0.05
-0.055
-0.055
-0.04
-0.025
-0.035
-0.065
-0.11
-0.14
-0.165
-0.17
-0.175
-0.175
-0.195
-0.225
-0.26
-0.27
-0.27
-0.245
-0.225
-0.205
-0.22
-0.26
-0.295
-0.31
-0.305
-0.275
-0.25
-0.225
-0.235
-0.28
-0.315
-0.35
-0.365
-0.355
-0.33
-0.33
-0.325
-0.33
-0.33
-0.325
-0.325
-0.31
-0.31
-0.305
-0.285
-0.29
-0.3
-0.33
-0.345
-0.36
-0.36
-0.35
-0.35
-0.33
-0.33
-0.335
-0.34
-0.355
-0.37
-0.375
-0.37
-0.355
-0.36
-0.34
-0.325
-0.325
-0.305
-0.31
-0.31
-0.32
-0.33
-0.355
-0.375
-0.38
-0.385
-0.375
-0.345
-0.32
-0.295
-0.28
-0.275
-0.28
-0.285
-0.29
-0.3
-0.3
-0.3
-0.295
-0.305
-0.305
-0.31
-0.325
-0.34
-0.345
-0.335
-0.335
-0.32
-0.31
-0.315
-0.295
-0.3
-0.31
-0.31
-0.315
-0.3
-0.29
-0.28
-0.295
-0.325
-0.36
-0.38
-0.38
-0.375
-0.345
-0.33
-0.31
-0.295
-0.295
-0.27
-0.265
-0.255
-0.275
-0.29
-0.31
-0.32
-0.325
-0.31
-0.295
-0.265
-0.245
-0.26
-0.295
-0.33
-0.37
-0.37
-0.36
-0.345
-0.32
-0.285
-0.27
-0.275
-0.295
-0.295
-0.29
-0.275
-0.255
-0.235
-0.205
-0.16
-0.09
0.0
0.125
0.25
0.36
0.45
0.46
0.395
0.205
-0.055
-0.33
-0.53
-0.65
-0.71
-0.71
-0.67
-0.66
-0.63
-0.61
-0.59
-0.565
-0.545
-0.55
-0.545
-0.555
-0.54
-0.495
-0.445
-0.425
-0.415
-0.445
-0.465
-0.51
-0.525
-0.53
-0.505
-0.485
-0.445
-0.4
-0.38
-0.365
-0.36
-0.35
-0.325
-0.33
-0.33
-0.32
-0.33
-0.305
-0.285
-0.26
-0.235
-0.25
-0.275
-0.325
-0.36
-0.385
-0.39
-0.37
-0.335
-0.305
-0.28
-0.275
-0.26
-0.265
-0.255
-0.245
-0.22
-0.195
-0.19
-0.19
-0.255
-0.33
-0.38
-0.39
-0.375
-0.34
-0.305
-0.265
-0.265
-0.255
-0.24
-0.235
-0.24
-0.21
-0.175
-0.15
-0.135
-0.135
-0.145
-0.18
-0.22
-0.26
-0.27
-0.24
-0.205
-0.16
-0.13
-0.09
-0.065
-0.045
-0.03
-0.03
-0.035
-0.055
-0.07
-0.09
-0.08
-0.085
-0.065
-0.055
-0.035
-0.035
-0.025
-0.04
-0.025
-0.025
-0.035
-0.045
-0.06
-0.065
-0.08
-0.09
-0.135
-0.17
-0.21
-0.235
-0.275
-0.28
-0.295
-0.27
-0.275
-0.26
-0.245
-0.225
-0.22
-0.22
-0.21
-0.235
-0.275
-0.32
-0.345
-0.345
-0.33
-0.305
-0.265
-0.25
-0.245
-0.285
-0.305
-0.32
-0.345
-0.35
-0.345
-0.335
-0.34
-0.33
-0.335
-0.325
-0.325
-0.32
-0.305
-0.29
-0.295
-0.305
-0.315
-0.34
-0.335
-0.34
-0.34
-0.335
-0.345
-0.35
-0.365
-0.365
-0.345
-0.32
-0.32
-0.315
-0.315
-0.32
-0.31
-0.28
-0.26
-0.25
-0.265
-0.3
-0.345
-0.36
-0.355
-0.33
-0.295
-0.265
-0.255
-0.25
-0.255
-0.27
-0.295
-0.295
-0.275
-0.295
-0.3
-0.31
-0.305
-0.285
-0.275
-0.285
-0.31
-0.32
-0.34
-0.345
-0.32
-0.315
-0.29
-0.28
-0.28
-0.27
-0.27
-0.26
-0.27
-0.28
-0.285
-0.295
-0.295
-0.295
-0.28
-0.275
-0.26
-0.235
-0.235
-0.24
-0.27
-0.31
-0.335
-0.345
-0.335
-0.32
-0.29
-0.29
-0.29
-0.295
-0.315
-0.33
-0.315
-0.325
-0.33
-0.31
-0.3
-0.295
-0.305
-0.3
-0.285
-0.265
-0.26
-0.245
-0.23
-0.23
-0.195
-0.165
-0.125
-0.105
-0.075
-0.025
0.045
0.145
0.26
0.38
0.445
0.42
0.29
0.05
-0.24
-0.485
-0.65
-0.73
-0.725
-0.675
-0.615
-0.555
-0.515
-0.495
-0.48
-0.5
-0.52
-0.53
-0.525
-0.51
-0.465
-0.42
-0.39
-0.405
-0.415
-0.44
-0.445
-0.455
-0.435
-0.445
-0.44
-0.465
-0.475
-0.45
-0.41
-0.34
-0.285
-0.25
-0.235
-0.265
-0.295
-0.33
-0.35
-0.35
-0.34
-0.315
-0.3
-0.29
-0.285
-0.29
-0.285
-0.28
-0.275
-0.29
-0.28
-0.27
-0.26
-0.27
-0.275
-0.29
-0.28
-0.265
-0.255
-0.255
-0.26
-0.27
-0.27
-0.25
-0.24
-0.22
-0.23
-0.235
-0.25
-0.27
-0.26
-0.255
-0.24
-0.23
-0.215
-0.215
-0.215
-0.21
-0.215
-0.195
-0.18
-0.155
-0.13
-0.12
-0.11
-0.115
-0.115
-0.11
-0.09
-0.115
-0.11
-0.095
-0.065
-0.045
-0.03
-0.04
-0.04
-0.05
-0.035
-0.025
-0.015
-0.005
0.0
0.01
0.015
0.0
-0.005
-0.035
-0.06
-0.07
-0.09
-0.09
-0.075
-0.085
-0.09
-0.105
-0.125
-0.165
-0.195
-0.205
-0.205
-0.21
-0.22
-0.22
-0.235
-0.235
-0.225
-0.205
-0.215
-0.225
-0.245
-0.285
-0.305
-0.32
-0.31
-0.3
-0.28
-0.265
-0.265
-0.255
-0.27
-0.285
-0.285
-0.29
-0.295
-0.3
-0.28
-0.29
-0.3
-0.31
-0.32
-0.33
-0.335
-0.33
-0.325
-0.32
-0.3
-0.28
-0.26
-0.255
-0.255
-0.255
-0.26
-0.26
-0.255
-0.245
-0.25
-0.255
-0.275
-0.29
-0.305
-0.31
-0.3
-0.29
-0.285
-0.27
-0.27
-0.26
-0.255
-0.26
-0.27
-0.29
-0.3
-0.3
-0.28
-0.26
-0.25
-0.24
-0.235
-0.24
-0.25
-0.275
-0.3
-0.335
-0.355
-0.345
-0.305
-0.28
-0.255
-0.24
-0.245
-0.25
-0.265
-0.27
-0.295
-0.305
-0.31
-0.295
-0.27
-0.29
-0.3
-0.305
-0.3
-0.3
-0.295
-0.29
-0.285
-0.295
-0.305
-0.3
-0.29
-0.29
-0.285
-0.28
-0.285
-0.285
-0.28
-0.28
-0.285
-0.305
-0.325
-0.325
-0.33
-0.32
-0.29
-0.275
-0.255
-0.245
-0.26
-0.285
-0.305
-0.325
-0.315
-0.295
-0.285
-0.275
-0.275
-0.29
-0.29
-0.305
-0.31
-0.32
-0.315
-0.31
-0.295
-0.29
-0.27
-0.265
-0.26
-0.265
-0.295
-0.31
-0.31
-0.325
-0.325
-0.33
-0.315
-0.295
-0.28
-0.23
-0.23
-0.225
-0.245
-0.285
-0.32
-0.35
-0.355
-0.34
-0.315
-0.295
-0.285
-0.275
-0.255
-0.205
-0.185
-0.19
-0.23
-0.28
-0.34
-0.36
-0.36
-0.33
-0.305
-0.28
-0.27
-0.27
-0.275
-0.27
-0.28
-0.27
-0.255
-0.245
-0.225
-0.23
-0.245
-0.27
-0.3
-0.34
-0.34
-0.33
-0.32
-0.3
-0.285
-0.27
-0.28
-0.285
-0.27
-0.26
-0.235
-0.2
-0.175
-0.19
-0.25
-0.31
-0.365
-0.37
-0.355
-0.325
-0.295
-0.28
-0.265
-0.255
-0.25
-0.265
-0.275
-0.275
-0.27
-0.255
-0.23
-0.2
-0.175
-0.155
-0.17
-0.215
-0.275
-0.355
-0.385
-0.385
-0.365
-0.345
-0.33
-0.31
-0.295
-0.28
-0.265
-0.255
-0.265
-0.27
-0.265
-0.265
-0.27
-0.26
-0.265
-0.255
-0.245
-0.235
-0.23
-0.22
-0.235
-0.25
-0.265
-0.285
-0.295
-0.29
-0.285
-0.26
-0.255
-0.24
-0.27
-0.285
-0.305
-0.285
-0.27
-0.27
-0.27
-0.305
-0.315
-0.305
-0.3
-0.285
-0.265
-0.245
-0.245
-0.265
-0.285
-0.29
-0.29
-0.29
-0.285
-0.3
-0.295
-0.3
-0.29
-0.295
-0.295
-0.3
-0.305
-0.28
-0.25
-0.235
-0.24
-0.23
-0.245
-0.25
-0.275
-0.285
-0.28
-0.275
-0.25
-0.26
-0.26
-0.285
-0.285
-0.29
-0.3
-0.285
-0.27
-0.255
-0.24
-0.24
-0.24
-0.265
-0.265
-0.285
-0.295
-0.285
-0.275
-0.255
-0.245
-0.225
-0.225
-0.225
-0.225
-0.23
-0.25
-0.265
-0.27
-0.275
-0.255
-0.26
-0.255
-0.24
-0.24
-0.245
-0.245
-0.255
-0.25
-0.255
-0.27
-0.28
-0.275
-0.255
-0.24
-0.225
-0.235
-0.255
-0.28
-0.275
-0.265
-0.27
-0.275
-0.27
-0.26
-0.26
-0.25
-0.235
-0.235
-0.235
-0.245
-0.26
-0.255
-0.265
-0.26
-0.25
-0.245
-0.23
-0.225
-0.235
-0.255
-0.255
-0.25
-0.265
-0.265
-0.265
-0.275
-0.27
-0.27
-0.26
-0.245
-0.25
-0.24
-0.24
-0.255
-0.26
-0.27
-0.285
-0.29
-0.285
-0.27
-0.235
-0.235
-0.205
-0.21
-0.235
-0.235
-0.25
-0.27
-0.29
-0.305
-0.315
-0.305
-0.285
-0.245
-0.22
-0.2
-0.2
-0.225
-0.26
-0.3
-0.315
-0.325
-0.3
-0.275
-0.25
-0.23
-0.225
-0.235
-0.24
-0.25
-0.26
-0.26
-0.28
-0.28
-0.28
-0.275
-0.27
-0.265
-0.25
-0.24
-0.235
-0.225
-0.23
-0.235
-0.24
-0.25
-0.25
-0.245
-0.245
-0.255
-0.265
-0.265
-0.26
-0.265
-0.255
-0.265
-0.27
-0.265
-0.275
-0.265
-0.27
-0.255
-0.23
-0.23
-0.25
-0.26
-0.28
-0.295
-0.29
-0.3
-0.29
-0.285
-0.295
-0.28
-0.26
-0.24
-0.24
-0.215
-0.225
-0.26
-0.26
-0.27
-0.27
-0.275
-0.255
-0.26
-0.25
-0.245
-0.265
-0.25
-0.26
-0.265
-0.275
-0.295
-0.29
-0.29
-0.27
-0.265
-0.27
-0.265
-0.265
-0.255
-0.26
-0.26
-0.275
-0.265
-0.26
-0.28
-0.295
-0.295
-0.29
-0.285
-0.275
-0.245
-0.245
-0.23
-0.22
-0.235
-0.235
-0.265
-0.28
-0.295
-0.285
-0.265
-0.24
-0.23
-0.215
-0.225
-0.25
-0.27
-0.29
-0.3
-0.3
-0.305
-0.305
-0.29
-0.29
-0.27
-0.28
-0.27
-0.265
-0.26
-0.275
-0.28
-0.295
-0.31
-0.295
-0.285
-0.28
-0.28
-0.285
-0.275
-0.265
-0.27
-0.245
-0.25
-0.24
-0.25
-0.27
-0.27
-0.295
-0.295
-0.31
-0.32
-0.33
-0.32
-0.29
-0.27
-0.26
-0.245
-0.225
-0.24
-0.255
-0.25
-0.27
-0.29
-0.28
-0.295
-0.295
-0.28
-0.28
-0.265
-0.235
-0.225
-0.23
-0.245
-0.255
-0.26
-0.285
-0.285
-0.29
-0.265
-0.255
-0.25
-0.245
-0.245
-0.25
-0.255
-0.255
-0.265
-0.27
-0.295
-0.31
-0.315
-0.32
-0.305
-0.28
-0.26
-0.24
-0.22
-0.22
-0.215
-0.24
-0.26
-0.275
-0.285
-0.28
-0.275
-0.27
-0.255
-0.24
-0.225
-0.205
-0.215
-0.245
-0.27
-0.295
-0.31
-0.315
-0.3
-0.275
-0.265
-0.26
-0.245
-0.25
-0.245
-0.255
-0.27
-0.275
-0.255
-0.26
-0.24
-0.24
-0.24
-0.25
-0.265
-0.27
-0.27
-0.265
-0.26
-0.25
-0.26
-0.26
-0.25
-0.25
-0.26
-0.26
-0.245
-0.24
-0.25
-0.26
-0.27
-0.265
-0.27
-0.27
-0.275
-0.27
-0.27
-0.26
-0.255
-0.26
-0.27
-0.28
-0.285
-0.3
-0.31
-0.295
-0.28
-0.255
-0.235
-0.24
-0.26
-0.255
-0.255
-0.245
-0.235
-0.235
-0.225
-0.245
-0.27
-0.305
-0.325
-0.32
-0.315
-0.31
-0.305
-0.285
-0.275
-0.275
-0.27
-0.255
-0.25
-0.25
-0.245
-0.275
-0.28
-0.295
-0.29
-0.295
-0.31
-0.31
-0.305
-0.295
-0.275
-0.255
-0.245
-0.245
-0.235
-0.24
-0.245
-0.255
-0.27
-0.295
-0.3
-0.3
-0.29
-0.29
-0.265
-0.27
-0.245
-0.255
-0.265
-0.285
-0.29
-0.305
-0.285
-0.285
-0.275
-0.245
-0.235
-0.235
-0.245
-0.265
-0.265
-0.28
-0.29
-0.285
-0.285
-0.275
-0.245
-0.24
-0.24
-0.26
-0.275
-0.295
-0.295
-0.285
-0.27
-0.265
-0.26
-0.26
-0.255
-0.245
-0.255
-0.26
-0.27
-0.27
-0.265
-0.275
-0.27
-0.27
-0.27
-0.255
-0.245
-0.225
-0.225
-0.245
-0.245
-0.27
-0.275
-0.29
-0.3
-0.295
-0.28
-0.27
-0.25
-0.22
-0.2
-0.205
-0.2
-0.22
-0.24
-0.285
-0.305
-0.325
-0.34
-0.33
-0.315
-0.295
-0.275
-0.25
-0.225
-0.21
-0.205
-0.205
-0.195
-0.185
-0.175
-0.175
-0.18
-0.2
-0.21
-0.215
-0.21
-0.205
-0.185
-0.205
-0.2
-0.2
-0.18
-0.17
-0.16
-0.16
-0.155
-0.175
-0.205
-0.23
-0.265
-0.29
-0.305
-0.295
-0.275
-0.25
-0.235
-0.215
-0.21
-0.21
-0.22
-0.23
-0.235
-0.28
-0.305
-0.32
-0.32
-0.31
-0.305
-0.285
-0.27
-0.26
-0.26
-0.255
-0.255
-0.245
-0.25
-0.25
-0.255
-0.27
-0.27
-0.275
-0.275
-0.27
-0.26
-0.26
-0.28
-0.295
-0.31
-0.315
-0.31
-0.29
-0.26
-0.24
-0.215
-0.205
-0.2
-0.21
-0.205
-0.205
-0.205
-0.185
-0.135
-0.055
0.01
0.085
0.15
0.205
0.265
0.295
0.25
0.14
-0.045
-0.26
-0.425
-0.525
-0.56
-0.54
-0.505
-0.485
-0.48
-0.49
-0.53
-0.545
-0.57
-0.55
-0.54
-0.5
-0.475
-0.43
-0.415
-0.425
-0.44
-0.475
-0.495
-0.51
-0.5
-0.485
-0.46
-0.425
-0.395
-0.375
-0.335
-0.32
-0.285
-0.28
-0.27
-0.265
-0.26
-0.25
-0.26
-0.26
-0.29
-0.305
-0.315
-0.305
-0.275
-0.265
-0.265
-0.26
-0.275
-0.28
-0.295
-0.285
-0.3
-0.295
-0.29
-0.285
-0.275
-0.26
-0.27
-0.265
-0.27
-0.27
-0.265
-0.25
-0.245
-0.23
-0.24
-0.245
-0.25
-0.26
-0.255
-0.245
-0.25
-0.22
-0.225
-0.235
-0.245
-0.245
-0.225
-0.2
-0.195
-0.175
-0.175
-0.175
-0.195
-0.2
-0.205
-0.225
-0.22
-0.2
-0.16
-0.135
-0.115
-0.095
-0.09
-0.095
-0.08
-0.085
-0.09
-0.095
-0.105
-0.105
-0.1
-0.085
-0.075
-0.08
-0.08
-0.085
-0.095
-0.085
-0.075
-0.055
-0.05
-0.025
-0.015
-0.03
-0.075
-0.11
-0.14
-0.16
-0.17
-0.17
-0.16
-0.155
-0.155
-0.155
-0.15
-0.145
-0.155
-0.16
-0.17
-0.2
-0.215
-0.215
-0.225
-0.225
-0.23
-0.24
-0.235
-0.255
-0.25
-0.235
-0.25
-0.26
-0.265
-0.265
-0.265
-0.27
-0.245
-0.225
-0.21
-0.205
-0.2
-0.22
-0.24
-0.255
-0.28
-0.26
-0.255
-0.25
-0.24
-0.235
-0.225
-0.23
-0.225
-0.215
-0.22
-0.24
-0.245
-0.24
-0.24
-0.225
-0.21
-0.2
-0.215
-0.23
-0.245
-0.26
-0.275
-0.265
-0.275
-0.25
-0.24
-0.23
-0.215
-0.23
-0.22
-0.215
-0.225
-0.235
-0.255
-0.255
-0.27
-0.27
-0.27
-0.27
-0.265
-0.25
-0.25
-0.25
-0.245
-0.245
-0.25
-0.25
-0.255
-0.245
-0.23
-0.23
-0.215
-0.205
-0.2
-0.215
-0.23
-0.27
-0.29
-0.29
-0.29
-0.28
-0.29
-0.28
-0.28
-0.255
-0.24
-0.25
-0.245
-0.255
-0.275
-0.28
-0.285
-0.265
-0.28
-0.275
-0.28
-0.27
-0.24
-0.24
-0.225
-0.23
-0.25
-0.26
-0.275
-0.28
-0.28
-0.28
-0.265
-0.25
-0.22
-0.23
-0.22
-0.225
-0.245
-0.27
-0.285
-0.295
-0.295
-0.275
-0.26
-0.245
-0.25
-0.255
-0.265
-0.255
-0.265
-0.275
-0.285
-0.275
-0.285
-0.285
-0.28
-0.275
-0.275
-0.265
-0.26
-0.255
-0.24
-0.235
-0.225
-0.225
-0.25
-0.265
-0.28
-0.285
-0.265
-0.255
-0.22
-0.205
-0.21
-0.24
-0.27
-0.305
-0.305
-0.305
-0.29
-0.26
-0.245
-0.245
-0.245
-0.24
-0.235
-0.23
-0.215
-0.2
-0.21
-0.205
-0.235
-0.255
-0.26
-0.255
-0.26
-0.25
-0.215
-0.225
-0.225
-0.24
-0.24
-0.24
-0.225
-0.22
-0.215
-0.22
-0.22
-0.22
-0.215
-0.22
-0.215
-0.24
-0.225
-0.22
-0.19
-0.18
-0.16
-0.16
-0.17
-0.18
-0.195
-0.225
-0.235
-0.225
-0.21
-0.18
-0.165
-0.155
-0.175
-0.21
-0.24
-0.245
-0.23
-0.215
-0.205
-0.21
-0.22
-0.225
-0.23
-0.23
-0.24
-0.25
-0.26
-0.275
-0.305
-0.3
-0.315
-0.335
-0.335
-0.32
-0.305
-0.29
-0.29
-0.275
-0.28
-0.29
-0.29
-0.285
-0.3
-0.3
-0.305
-0.32
-0.33
-0.34
-0.335
-0.335
-0.335
-0.325
-0.32
-0.31
-0.29
-0.275
-0.29
-0.295
-0.305
-0.325
-0.33
-0.34
-0.335
-0.33
-0.315
-0.29
-0.275
-0.255
-0.23
-0.19
-0.12
-0.04
0.06
0.15
0.24
0.315
0.365
0.35
0.24
0.06
-0.16
-0.36
-0.505
-0.585
-0.615
-0.61
-0.585
-0.565
-0.54
-0.51
-0.505
-0.51
-0.52
-0.52
-0.525
-0.49
-0.445
-0.42
-0.4
-0.41
-0.43
-0.47
-0.5
-0.505
-0.51
-0.49
-0.465
-0.465
-0.46
-0.46
-0.465
-0.445
-0.42
-0.38
-0.345
-0.31
-0.29
-0.29
-0.29
-0.285
-0.285
-0.295
-0.29
-0.295
-0.3
-0.295
-0.3
-0.29
-0.28
-0.29
-0.29
-0.285
-0.285
-0.285
-0.275
-0.275
-0.26
-0.265
-0.265
-0.27
-0.275
-0.265
-0.25
-0.25
-0.24
-0.265
-0.28
-0.3
-0.295
-0.285
-0.25
-0.205
-0.18
-0.165
-0.185
-0.205
-0.235
-0.265
-0.275
-0.27
-0.275
-0.25
-0.245
-0.22
-0.19
-0.145
-0.115
-0.07
-0.05
-0.07
-0.115
-0.14
-0.155
-0.155
-0.135
-0.11
-0.095
-0.075
-0.075
-0.045
-0.03
-0.025
-0.025
-0.025
-0.035
-0.065
-0.075
-0.08
-0.07
-0.035
0.0
0.02
-0.005
-0.095
-0.155
-0.19
-0.2
-0.185
-0.175
-0.16
-0.15
-0.15
-0.17
-0.17
-0.185
-0.205
-0.225
-0.24
-0.25
-0.27
-0.29
-0.29
-0.29
-0.265
-0.225
-0.195
-0.2
-0.225
-0.29
-0.34
-0.385
-0.405
-0.395
-0.38
-0.365
-0.345
-0.325
-0.31
-0.305
-0.305
-0.305
-0.28
-0.255
-0.26
-0.28
-0.32
-0.35
-0.375
-0.35
-0.325
-0.285
-0.26
-0.23
-0.23
-0.235
-0.23
-0.225
-0.225
-0.205
-0.175
-0.155
-0.135
-0.165
-0.22
-0.28
-0.325
-0.35
-0.345
-0.315
-0.285
-0.255
-0.2
-0.175
-0.16
-0.18
-0.225
-0.265
-0.29
-0.32
-0.32
-0.32
-0.29
-0.285
-0.27
-0.245
-0.24
-0.23
-0.225
-0.24
-0.255
-0.28
-0.29
-0.285
-0.29
-0.29
-0.27
-0.25
-0.24
-0.23
-0.235
-0.26
-0.26
-0.295
-0.295
-0.295
-0.29
-0.28
-0.235
-0.215
-0.2
-0.205
-0.23
-0.24
-0.255
-0.265
-0.255
-0.23
-0.185
-0.145
-0.08
-0.03
0.06
0.175
0.285
0.355
0.405
0.36
0.22
-0.02
-0.255
-0.45
-0.565
-0.6
-0.58
-0.53
-0.51
-0.5
-0.49
-0.5
-0.515
-0.515
-0.55
-0.55
-0.53
-0.49
-0.425
-0.365
-0.345
-0.35
-0.405
-0.465
-0.525
-0.545
-0.525
-0.485
-0.435
-0.38
-0.325
-0.29
-0.285
-0.275
-0.28
-0.3
-0.295
-0.3
-0.275
-0.26
-0.235
-0.21
-0.21
-0.23
-0.255
-0.275
-0.28
-0.285
-0.295
-0.305
-0.295
-0.28
-0.255
-0.25
-0.235
-0.225
-0.21
-0.205
-0.2
-0.205
-0.23
-0.24
-0.265
-0.265
-0.28
-0.275
-0.265
-0.255
-0.23
-0.21
-0.185
-0.165
-0.15
-0.155
-0.16
-0.165
-0.18
-0.21
-0.22
-0.215
-0.215
-0.2
-0.19
-0.185
-0.175
-0.16
-0.155
-0.145
-0.105
-0.085
-0.05
-0.005
0.03
0.05
0.03
0.005
-0.025
-0.065
-0.1
-0.085
-0.06
-0.04
-0.015
0.01
0.015
0.03
0.03
0.025
0.005
-0.01
-0.025
-0.04
-0.045
-0.05
-0.06
-0.065
-0.08
-0.1
-0.11
-0.125
-0.145
-0.155
-0.15
-0.145
-0.16
-0.18
-0.19
-0.2
-0.23
-0.235
-0.24
-0.235
-0.23
-0.245
-0.245
-0.245
-0.245
-0.245
-0.255
-0.305
-0.32
-0.33
-0.33
-0.305
-0.28
-0.255
-0.24
-0.23
-0.24
-0.24
-0.27
-0.27
-0.295
-0.28
-0.275
-0.28
-0.305
-0.315
-0.31
-0.315
-0.285
-0.26
-0.245
-0.225
-0.23
-0.245
-0.26
-0.275
-0.305
-0.33
-0.325
-0.325
-0.305
-0.29
-0.27
-0.26
-0.26
-0.26
-0.275
-0.28
-0.3
-0.31
-0.3
-0.29
-0.285
-0.25
-0.22
-0.22
-0.21
-0.215
-0.225
-0.25
-0.28
-0.305
-0.315
-0.315
-0.3
-0.27
-0.255
-0.225
-0.22
-0.215
-0.23
-0.255
-0.27
-0.305
-0.32
-0.32
-0.305
-0.285
-0.26
-0.245
-0.25
-0.25
-0.255
-0.24
-0.21
-0.2
-0.205
-0.24
-0.29
-0.32
-0.325
-0.315
-0.31
-0.29
-0.285
-0.27
-0.285
-0.28
-0.275
-0.265
-0.235
-0.2
-0.185
-0.185
-0.225
-0.27
-0.305
-0.34
-0.345
-0.34
-0.32
-0.28
-0.265
-0.24
-0.21
-0.195
-0.18
-0.16
-0.155
-0.13
-0.09
-0.02
0.075
0.185
0.27
0.32
0.33
0.26
0.105
-0.12
-0.35
-0.505
-0.595
-0.62
-0.595
-0.55
-0.51
-0.485
-0.47
-0.455
-0.475
-0.475
-0.5
-0.505
-0.495
-0.47
-0.445
-0.425
-0.425
-0.44
-0.455
-0.475
-0.495
-0.48
-0.46
-0.43
-0.39
-0.36
-0.33
-0.305
-0.3
-0.285
-0.275
-0.28
-0.275
-0.26
-0.245
-0.23
-0.22
-0.225
-0.25
-0.28
-0.3
-0.305
-0.3
-0.285
-0.275
-0.265
-0.255
-0.25
-0.24
-0.25
-0.26
-0.275
-0.265
-0.265
-0.26
-0.24
-0.23
-0.235
-0.245
-0.245
-0.265
-0.255
-0.26
-0.24
-0.215
-0.19
-0.21
-0.2
-0.205
-0.195
-0.195
-0.17
-0.165
-0.175
-0.19
-0.2
-0.205
-0.2
-0.18
-0.155
-0.15
-0.14
-0.13
-0.125
-0.105
-0.095
-0.09
-0.1
-0.08
-0.085
-0.06
-0.045
-0.035
-0.035
-0.035
-0.04
-0.04
-0.04
-0.05
-0.04
-0.045
-0.04
-0.035
-0.05
-0.045
-0.045
-0.05
-0.065
-0.075
-0.11
-0.13
-0.15
-0.145
-0.165
-0.165
-0.165
-0.17
-0.165
-0.175
-0.18
-0.19
-0.2
-0.205
-0.225
-0.225
-0.245
-0.275
-0.28
-0.29
-0.29
-0.285
-0.265
-0.27
-0.265
-0.27
-0.28
-0.265
-0.265
-0.26
-0.265
-0.275
-0.285
-0.305
-0.305
-0.31
-0.32
-0.305
-0.29
-0.29
-0.28
-0.26
-0.225
-0.24
-0.25
-0.275
-0.315
-0.31
-0.325
-0.315
-0.305
-0.29
-0.265
-0.265
-0.255
-0.255
-0.245
-0.26
-0.255
-0.265
-0.285
-0.295
-0.28
-0.28
-0.275
-0.27
-0.26
-0.255
-0.24
-0.23
-0.23
-0.25
-0.27
-0.27
-0.29
-0.295
-0.305
-0.32
-0.305
-0.305
-0.3
-0.29
-0.26
-0.245
-0.23
-0.2
-0.2
-0.205
-0.25
-0.275
-0.31
-0.35
-0.37
-0.38
-0.395
-0.37
-0.34
-0.32
-0.31
-0.28
-0.285
-0.285
-0.285
-0.275
-0.28
-0.285
-0.3
-0.31
-0.31
-0.33
-0.325
-0.31
-0.275
-0.255
-0.235
-0.24
-0.25
-0.29
-0.335
-0.355
-0.365
-0.36
-0.34
-0.31
-0.295
-0.27
-0.26
-0.245
-0.24
-0.245
-0.245
-0.295
-0.35
-0.385
-0.385
-0.375
-0.335
-0.305
-0.28
-0.27
-0.265
-0.28
-0.28
-0.29
-0.275
-0.265
-0.24
-0.235
-0.245
-0.275
-0.31
-0.34
-0.37
-0.36
-0.345
-0.335
-0.315
-0.29
-0.275
-0.265
-0.25
-0.255
-0.25
-0.27
-0.29
-0.31
-0.32
-0.33
-0.34
-0.33
-0.32
-0.305
-0.295
-0.28
-0.28
-0.275
-0.28
-0.28
-0.285
-0.29
-0.305
-0.31
-0.305
-0.305
-0.285
-0.27
-0.235
-0.255
-0.275
-0.3
-0.33
-0.35
-0.34
-0.32
-0.305
-0.295
-0.305
-0.29
-0.28
-0.27
-0.255
-0.24
-0.235
-0.27
-0.32
-0.36
-0.375
-0.37
-0.34
-0.305
-0.27
-0.255
-0.23
-0.225
-0.225
-0.235
-0.265
-0.29
-0.325
-0.345
-0.36
-0.35
-0.325
-0.295
-0.28
-0.275
-0.285
-0.29
-0.305
-0.32
-0.315
-0.305
-0.29
-0.3
-0.295
-0.295
-0.285
-0.28
-0.275
-0.285
-0.305
-0.32
-0.325
-0.33
-0.31
-0.295
-0.28
-0.28
-0.285
-0.3
-0.305
-0.3
-0.305
-0.29
-0.28
-0.295
-0.3
-0.29
-0.285
-0.27
-0.265
-0.26
-0.29
-0.3
-0.315
-0.315
-0.315
-0.3
-0.295
-0.285
-0.27
-0.275
-0.27
-0.275
-0.28
-0.285
-0.315
-0.325
-0.32
-0.305
-0.29
-0.29
-0.29
-0.285
-0.295
-0.29
-0.295
-0.28
-0.265
-0.255
-0.255
-0.26
-0.265
-0.27
-0.27
-0.275
-0.275
-0.285
-0.29
-0.29
-0.31
-0.32
-0.34
-0.335
-0.31
-0.295
-0.275
-0.255
-0.26
-0.28
-0.3
-0.31
-0.315
-0.305
-0.3
-0.305
-0.3
-0.295
-0.275
-0.285
-0.26
-0.27
-0.265
-0.265
-0.275
-0.285
-0.3
-0.32
-0.32
-0.305
-0.305
-0.305
-0.285
-0.28
-0.275
-0.285
-0.27
-0.235
-0.205
-0.2
-0.22
-0.245
-0.295
-0.335
-0.355
-0.35
-0.33
-0.32
-0.305
-0.3
-0.295
-0.29
-0.275
-0.275
-0.25
-0.255
-0.255
-0.26
-0.25
-0.245
-0.25
-0.23
-0.225
-0.245
-0.27
-0.29
-0.305
-0.305
-0.305
-0.295
-0.3
-0.3
-0.305
-0.3
-0.3
-0.28
-0.27
-0.255
-0.245
-0.235
-0.245
-0.255
-0.28
-0.275
-0.29
-0.295
-0.285
-0.28
-0.29
-0.275
-0.26
-0.265
-0.255
-0.26
-0.27
-0.28
-0.29
-0.3
-0.295
-0.305
-0.285
-0.275
-0.25
-0.235
-0.245
-0.255
-0.275
-0.305
-0.32
-0.31
-0.3
-0.3
-0.31
-0.295
-0.285
-0.285
-0.27
-0.26
-0.27
-0.27
-0.26
-0.275
-0.27
-0.265
-0.27
-0.265
-0.265
-0.27
-0.27
-0.275
-0.265
-0.25
-0.24
-0.215
-0.225
-0.225
-0.23
-0.245
-0.25
-0.26
-0.27
-0.3
-0.305
-0.305
-0.305
-0.29
-0.275
-0.265
-0.245
-0.235
-0.25
-0.26
-0.28
-0.275
-0.275
-0.275
-0.27
-0.28
-0.3
-0.3
-0.29
-0.265
-0.25
-0.245
-0.25
-0.255
-0.275
-0.275
-0.285
-0.27
-0.27
-0.27
-0.275
-0.275
-0.255
-0.245
-0.245
-0.25
-0.255
-0.265
-0.265
-0.255
-0.265
-0.255
-0.25
-0.24
-0.225
-0.24
-0.26
-0.28
-0.285
-0.285
-0.275
-0.27
-0.245
-0.23
-0.22
-0.23
-0.225
-0.215
-0.2
-0.195
-0.18
-0.195
-0.2
-0.2
-0.195
-0.19
-0.195
-0.175
-0.165
-0.15
-0.16
-0.175
-0.2
-0.21
-0.23
-0.25
-0.24
-0.235
-0.225
-0.205
-0.185
-0.185
-0.205
-0.225
-0.265
-0.28
-0.28
-0.29
-0.26
-0.255
-0.255
-0.265
-0.28
-0.275
-0.27
-0.255
-0.25
-0.24
-0.26
-0.275
-0.29
-0.285
-0.275
-0.27
-0.26
-0.265
-0.27
-0.27
-0.28
-0.29
-0.285
-0.275
-0.285
-0.28
-0.275
-0.275
-0.28
-0.27
-0.265
-0.25
-0.255
-0.26
-0.26
-0.255
-0.235
-0.2
-0.165
-0.12
-0.09
-0.055
-0.015
0.035
0.12
0.19
0.27
0.295
0.265
0.18
0.0
-0.19
-0.37
-0.48
-0.545
-0.57
-0.565
-0.535
-0.52
-0.485
-0.455
-0.46
-0.475
-0.485
-0.475
-0.47
-0.465
-0.45
-0.45
-0.44
-0.44
-0.45
-0.445
-0.445
-0.435
-0.425
-0.41
-0.38
-0.37
-0.33
-0.3
-0.28
-0.26
-0.245
-0.245
-0.245
-0.26
-0.28
-0.305
-0.295
-0.29
-0.295
-0.28
-0.26
-0.25
-0.26
-0.265
-0.265
-0.23
-0.215
-0.2
-0.22
-0.24
-0.265
-0.275
-0.295
-0.305
-0.3
-0.285
-0.28
-0.255
-0.23
-0.215
-0.19
-0.18
-0.185
-0.205
-0.235
-0.275
-0.295
-0.3
-0.28
-0.255
-0.22
-0.2
-0.185
-0.195
-0.19
-0.185
-0.16
-0.155
-0.15
-0.16
-0.175
-0.18
-0.17
-0.155
-0.155
-0.15
-0.14
-0.15
-0.145
-0.145
-0.13
-0.105
-0.08
-0.035
-0.035
-0.025
-0.04
-0.06
-0.08
-0.09
-0.105
-0.13
-0.135
-0.125
-0.11
-0.085
-0.07
-0.045
-0.045
-0.05
-0.05
-0.05
-0.035
-0.02
-0.005
-0.01
-0.055
-0.09
-0.145
-0.16
-0.16
-0.165
-0.15
-0.135
-0.15
-0.16
-0.165
-0.18
-0.185
-0.18
-0.16
-0.15
-0.145
-0.17
-0.195
-0.23
-0.25
-0.245
-0.245
-0.265
-0.275
-0.295
-0.3
-0.305
-0.305
-0.295
-0.28
-0.275
-0.275
-0.285
-0.28
-0.265
-0.26
-0.265
-0.26
-0.265
-0.26
-0.26
-0.245
-0.24
-0.24
-0.225
-0.24
-0.24
-0.225
-0.225
-0.22
-0.21
-0.21
-0.205
-0.21
-0.205
-0.195
-0.205
-0.205
-0.215
-0.22
-0.24
-0.225
-0.215
-0.21
-0.19
-0.195
-0.2
-0.2
-0.215
-0.22
-0.22
-0.22
-0.225
-0.22
-0.21
-0.2
-0.2
-0.205
-0.2
-0.21
-0.22
-0.235
-0.25
-0.245
-0.23
-0.2
-0.175
-0.18
-0.2
-0.22
-0.23
-0.265
-0.275
-0.28
-0.28
-0.275
-0.27
-0.23
-0.205
-0.185
-0.175
-0.18
-0.195
-0.2
-0.225
-0.235
-0.24
-0.24
-0.23
-0.2
-0.2
-0.19
-0.195
-0.205
-0.19
-0.16
-0.105
-0.045
0.04
0.12
0.175
0.22
0.21
0.1
-0.075
-0.295
-0.45
-0.53
-0.535
-0.495
-0.44
-0.405
-0.36
-0.34
-0.33
-0.35
-0.37
-0.425
-0.45
-0.445
-0.42
-0.405
-0.375
-0.365
-0.365
-0.37
-0.39
-0.415
-0.43
-0.44
-0.435
-0.405
-0.37
-0.335
-0.32
-0.3
-0.28
-0.245
-0.215
-0.215
-0.22
-0.21
-0.21
-0.195
-0.21
-0.225
-0.24
-0.255
-0.275
-0.27
-0.25
-0.23
-0.2
-0.18
-0.175
-0.2
-0.225
-0.24
-0.245
-0.235
-0.225
-0.21
-0.175
-0.185
-0.185
-0.185
-0.22
-0.225
-0.23
-0.225
-0.22
-0.215
-0.205
-0.185
-0.17
-0.175
-0.18
-0.18
-0.19
-0.185
-0.19
-0.185
-0.19
-0.205
-0.2
-0.19
-0.185
-0.16
-0.14
-0.125
-0.125
-0.135
-0.15
-0.155
-0.16
-0.135
-0.105
-0.075
-0.065
-0.06
-0.055
-0.05
-0.05
-0.045
-0.06
-0.055
-0.06
-0.06
-0.035
-0.04
-0.03
-0.035
-0.04
-0.04
-0.045
-0.05
-0.045
-0.04
-0.04
-0.025
-0.03
-0.065
-0.095
-0.13
-0.155
-0.185
-0.205
-0.205
-0.21
-0.2
-0.18
-0.175
-0.16
-0.16
-0.16
-0.16
-0.19
-0.215
-0.25
-0.27
-0.275
-0.265
-0.27
-0.25
-0.235
-0.235
-0.215
-0.205
-0.195
-0.21
-0.23
-0.24
-0.245
-0.255
-0.26
-0.25
-0.23
-0.225
-0.215
-0.22
-0.22
-0.205
-0.205
-0.22
-0.235
-0.255
-0.26
-0.27
-0.245
-0.23
-0.23
-0.225
-0.215
-0.215
-0.225
-0.235
-0.245
-0.255
-0.285
-0.285
-0.285
-0.275
-0.245
-0.23
-0.22
-0.21
-0.215
-0.225
-0.23
-0.22
-0.215
-0.185
-0.16
-0.15
-0.155
-0.185
-0.215
-0.23
-0.25
-0.255
-0.265
-0.27
-0.275
-0.26
-0.26
-0.25
-0.24
-0.24
-0.215
-0.23
-0.225
-0.22
-0.225
-0.225
-0.23
-0.225
-0.23
-0.23
-0.215
-0.22
-0.205
-0.19
-0.21
-0.21
-0.205
-0.21
-0.19
-0.18
-0.175
-0.205
-0.235
-0.265
-0.265
-0.25
-0.25
-0.245
-0.22
-0.215
-0.205
-0.195
-0.2
-0.2
-0.2
-0.19
-0.17
-0.155
-0.16
-0.17
-0.185
-0.185
-0.165
-0.15
-0.11
-0.08
-0.045
-0.03
0.005
0.06
0.135
0.195
0.255
0.3
0.265
0.145
-0.03
-0.22
-0.365
-0.455
-0.495
-0.505
-0.505
-0.485
-0.455
-0.415
-0.38
-0.36
-0.36
-0.38
-0.41
-0.405
-0.39
-0.345
-0.29
-0.27
-0.28
-0.33
-0.36
-0.395
-0.395
-0.39
-0.345
-0.325
-0.305
-0.29
-0.295
-0.27
-0.25
-0.2
-0.185
-0.175
-0.155
-0.14
-0.135
-0.14
-0.155
-0.175
-0.205
-0.22
-0.22
-0.215
-0.195
-0.165
-0.13
-0.11
-0.105
-0.135
-0.165
-0.18
-0.17
-0.165
-0.155
-0.14
-0.13
-0.135
-0.16
-0.19
-0.225
-0.225
-0.21
-0.19
-0.145
-0.13
-0.14
-0.15
-0.17
-0.18
-0.16
-0.13
-0.1
-0.085
-0.09
-0.085
-0.1
-0.11
-0.115
-0.11
-0.105
-0.07
-0.045
-0.025
-0.005
0.005
0.005
0.005
-0.025
-0.035
-0.015
-0.015
0.01
0.025
0.035
0.03
0.03
0.03
0.04
0.05
0.055
0.065
0.055
0.03
0.01
0.0
0.0
0.015
0.02
0.04
0.02
-0.005
-0.035
-0.06
-0.075
-0.08
-0.08
-0.06
-0.055
-0.055
-0.07
-0.1
-0.11
-0.125
-0.12
-0.115
-0.12
-0.135
-0.17
-0.165
-0.19
-0.19
-0.185
-0.17
-0.17
-0.175
-0.185
-0.21
-0.22
-0.22
-0.21
-0.19
-0.19
-0.18
-0.17
-0.175
-0.17
-0.175
-0.195
-0.205
-0.215
-0.2
-0.185
-0.165
-0.155
-0.15
-0.165
-0.19
-0.21
-0.21
-0.205
-0.205
-0.195
-0.19
-0.185
-0.18
-0.2
-0.225
-0.24
-0.26
-0.25
-0.25
-0.22
-0.205
-0.2
-0.2
-0.215
-0.23
-0.23
-0.22
-0.18
-0.185
-0.21
-0.21
-0.225
-0.24
-0.235
-0.225
-0.205
-0.205
-0.205
-0.215
-0.205
-0.215
-0.21
-0.21
-0.21
-0.25
-0.245
-0.25
-0.25
-0.25
-0.22
-0.205
-0.185
-0.175
-0.185
-0.185
-0.185
-0.2
-0.215
-0.22
-0.23
-0.21
-0.2
-0.19
-0.195
-0.2
-0.21
-0.225
-0.245
-0.235
-0.22
-0.215
-0.21
-0.21
-0.215
-0.22
-0.195
-0.195
-0.205
-0.225
-0.235
-0.24
-0.24
-0.225
-0.2
-0.185
-0.19
-0.175
-0.185
-0.165
-0.165
-0.165
-0.18
-0.195
-0.205
-0.205
-0.18
-0.15
-0.1
-0.06
0.02
0.08
0.16
0.245
0.315
0.35
0.32
0.205
0.01
-0.185
-0.35
-0.455
-0.5
-0.505
-0.48
-0.45
-0.42
-0.395
-0.395
-0.415
-0.435
-0.47
-0.46
-0.445
-0.42
-0.36
-0.335
-0.32
-0.32
-0.34
-0.38
-0.41
-0.42
-0.395
-0.38
-0.37
-0.365
-0.365
-0.345
-0.32
-0.295
-0.275
-0.25
-0.255
-0.24
-0.22
-0.195
-0.195
-0.17
-0.155
-0.17
-0.175
-0.19
-0.215
-0.24
-0.255
-0.24
-0.215
-0.215
-0.185
-0.175
-0.175
-0.19
-0.195
-0.2
-0.205
-0.215
-0.205
-0.2
-0.18
-0.175
-0.165
-0.16
-0.16
-0.18
-0.19
-0.195
-0.195
-0.19
-0.175
-0.16
-0.145
-0.125
-0.115
-0.1
-0.085
-0.1
-0.105
-0.135
-0.145
-0.165
-0.15
-0.145
-0.14
-0.105
-0.095
-0.075
-0.06
-0.025
-0.025
-0.01
-0.015
-0.01
-0.02
-0.02
-0.03
-0.015
-0.025
-0.01
-0.01
-0.02
-0.015
-0.025
-0.03
-0.04
-0.05
-0.05
-0.04
-0.02
-0.03
-0.035
-0.035
-0.05
-0.06
-0.08
-0.105
-0.115
-0.15
-0.155
-0.165
-0.155
-0.14
-0.115
-0.12
-0.145
-0.175
-0.21
-0.225
-0.24
-0.23
-0.22
-0.215
-0.215
-0.225
-0.235
-0.24
-0.235
-0.235
-0.22
-0.195
-0.19
-0.21
-0.225
-0.23
-0.23
-0.22
-0.215
-0.215
-0.225
-0.215
-0.225
-0.205
-0.2
-0.2
-0.195
-0.19
-0.18
-0.18
-0.17
-0.165
-0.16
-0.155
-0.165
-0.175
-0.195
-0.225
-0.24
-0.235
-0.2
-0.16
-0.13
-0.135
-0.15
-0.185
-0.21
-0.25
-0.26
-0.25
-0.22
-0.19
-0.165
-0.15
-0.155
-0.19
-0.21
-0.22
-0.225
-0.205
-0.195
-0.195
-0.19
-0.2
-0.21
-0.225
-0.225
-0.23
-0.2
-0.185
-0.19
-0.21
-0.22
-0.225
-0.23
-0.22
-0.22
-0.235
-0.23
-0.24
-0.24
-0.235
-0.23
-0.24
-0.235
-0.24
-0.25
-0.255
-0.245
-0.24
-0.22
-0.225
-0.225
-0.225
-0.22
-0.2
-0.195
-0.195
-0.205
-0.225
-0.235
-0.245
-0.235
-0.225
-0.235
-0.24
-0.24
-0.24
-0.24
-0.22
-0.205
-0.21
-0.21
-0.205
-0.21
-0.22
-0.23
-0.23
-0.215
-0.245
-0.24
-0.25
-0.27
-0.265
-0.25
-0.255
-0.23
-0.205
-0.2
-0.185
-0.185
-0.21
-0.22
-0.225
-0.225
-0.22
-0.205
-0.195
-0.185
-0.21
-0.215
-0.235
-0.26
-0.29
-0.3
-0.29
-0.245
-0.22
-0.195
-0.195
-0.21
-0.22
-0.235
-0.22
-0.215
-0.215
-0.235
-0.255
-0.245
-0.245
-0.24
-0.23
-0.225
-0.24
-0.245
-0.22
-0.215
-0.22
-0.245
-0.255
-0.275
-0.285
-0.265
-0.25
-0.225
-0.215
-0.215
-0.21
-0.23
-0.23
-0.23
-0.24
-0.235
-0.25
-0.25
-0.235
-0.225
-0.215
-0.22
-0.215
-0.22
-0.235
-0.255
-0.275
-0.285
-0.29
-0.265
-0.245
-0.215
-0.205
-0.205
-0.2
-0.215
-0.23
-0.235
-0.23
-0.23
-0.23
-0.23
-0.23
-0.21
-0.2
-0.19
-0.2
-0.21
-0.21
-0.22
-0.22
-0.21
-0.21
-0.205
-0.215
-0.22
-0.22
-0.21
-0.22
-0.21
-0.215
-0.22
-0.225
-0.225
-0.225
-0.22
-0.215
-0.215
-0.22
-0.235
-0.23
-0.235
-0.235
-0.235
-0.23
-0.23
-0.225
-0.23
-0.215
-0.195
-0.19
-0.18
-0.205
-0.205
-0.21
-0.225
-0.22
-0.2
-0.185
-0.195
-0.19
-0.2
-0.24
-0.255
-0.265
-0.255
-0.245
-0.205
-0.195
-0.185
-0.195
-0.215
-0.235
-0.235
-0.25
-0.245
-0.245
-0.245
-0.23
-0.225
-0.22
-0.23
-0.215
-0.215
-0.22
-0.205
-0.205
-0.205
-0.21
-0.205
-0.205
-0.21
-0.225
-0.235
-0.24
-0.24
-0.225
-0.22
-0.22
-0.235
-0.22
-0.22
-0.205
-0.2
-0.205
-0.195
-0.185
-0.215
-0.225
-0.24
-0.235
-0.23
-0.24
-0.235
-0.225
-0.205
-0.21
-0.21
-0.205
-0.205
-0.195
-0.175
-0.19
-0.195
-0.205
-0.21
-0.215
-0.225
-0.235
-0.245
-0.265
-0.26
-0.245
-0.23
-0.21
-0.195
-0.2
-0.215
-0.215
-0.205
-0.23
-0.23
-0.235
-0.23
-0.22
-0.22
-0.2
-0.215
-0.23
-0.235
-0.24
-0.23
-0.24
-0.235
-0.23
-0.23
-0.23
-0.21
-0.22
-0.19
-0.2
-0.2
-0.215
-0.225
-0.23
-0.23
-0.22
-0.22
-0.22
-0.18
-0.165
-0.165
-0.19
-0.205
-0.24
-0.25
-0.24
-0.23
-0.225
-0.215
-0.22
-0.2
-0.19
-0.185
-0.195
-0.185
-0.17
-0.175
-0.195
-0.21
-0.23
-0.255
-0.27
-0.245
-0.255
-0.23
-0.2
-0.195
-0.19
-0.2
-0.19
-0.195
-0.185
-0.19
-0.195
-0.19
-0.205
-0.215
-0.225
-0.235
-0.255
-0.26
-0.265
-0.24
-0.24
-0.21
-0.165
-0.14
-0.095
-0.08
-0.085
-0.125
-0.19
-0.275
-0.34
-0.365
-0.335
-0.3
-0.255
-0.22
-0.22
-0.21
-0.215
-0.215
-0.21
-0.185
-0.17
-0.18
-0.19
-0.185
-0.19
-0.2
-0.21
-0.205
-0.195
-0.2
-0.205
-0.205
-0.21
-0.215
-0.205
-0.2
-0.21
-0.21
-0.21
-0.215
-0.225
-0.225
-0.23
-0.24
-0.24
-0.22
-0.2
-0.205
-0.2
-0.21
-0.225
-0.22
-0.22
-0.23
-0.21
-0.2
-0.195
-0.195
-0.23
-0.235
-0.24
-0.245
-0.225
-0.205
-0.195
-0.2
-0.2
-0.205
-0.205
-0.22
-0.23
-0.24
-0.24
-0.215
-0.205
-0.185
-0.175
-0.17
-0.17
-0.175
-0.18
-0.185
-0.18
-0.19
-0.185
-0.19
-0.21
-0.225
-0.23
-0.23
-0.215
-0.195
-0.18
-0.15
-0.15
-0.135
-0.15
-0.155
-0.145
-0.135
-0.135
-0.145
-0.155
-0.18
-0.185
-0.195
-0.185
-0.17
-0.155
-0.14
-0.135
-0.145
-0.15
-0.17
-0.165
-0.165
-0.16
-0.165
-0.15
-0.165
-0.175
-0.18
-0.195
-0.205
-0.2
-0.195
-0.22
-0.23
-0.24
-0.245
-0.24
-0.22
-0.22
-0.205
-0.22
-0.23
-0.235
-0.225
-0.23
-0.235
-0.245
-0.24
-0.245
-0.26
-0.25
-0.24
-0.215
-0.22
-0.21
-0.21
-0.22
-0.23
-0.255
-0.255
-0.25
-0.235
-0.225
-0.195
-0.19
-0.19
-0.185
-0.185
-0.205
-0.185
-0.17
-0.145
-0.11
-0.055
-0.01
0.04
0.12
0.195
0.255
0.27
0.215
0.085
-0.11
-0.29
-0.42
-0.47
-0.475
-0.445
-0.425
-0.425
-0.435
-0.415
-0.38
-0.39
-0.39
-0.42
-0.44
-0.45
-0.445
-0.41
-0.37
-0.325
-0.32
-0.305
-0.32
-0.355
-0.39
-0.425
-0.44
-0.415
-0.385
-0.35
-0.31
-0.285
-0.265
-0.26
-0.245
-0.225
-0.215
-0.185
-0.18
-0.175
-0.17
-0.18
-0.205
-0.22
-0.23
-0.235
-0.235
-0.235
-0.23
-0.22
-0.2
-0.165
-0.135
-0.125
-0.13
-0.15
-0.185
-0.22
-0.245
-0.255
-0.25
-0.23
-0.21
-0.19
-0.165
-0.155
-0.165
-0.165
-0.175
-0.195
-0.2
-0.185
-0.185
-0.16
-0.15
-0.135
-0.125
-0.12
-0.13
-0.14
-0.13
-0.115
-0.115
-0.12
-0.14
-0.135
-0.145
-0.145
-0.135
-0.1
-0.08
-0.065
-0.065
-0.09
-0.1
-0.085
-0.075
-0.06
-0.05
-0.05
-0.065
-0.065
-0.055
-0.06
-0.04
-0.02
-0.015
-0.005
0.0
0.01
0.01
0.015
0.015
0.025
0.02
0.0
0.015
0.01
0.005
0.005
-0.02
-0.03
-0.04
-0.035
-0.04
-0.03
-0.035
-0.03
-0.04
-0.04
-0.055
-0.08
-0.105
-0.115
-0.13
-0.14
-0.13
-0.1
-0.115
-0.11
-0.13
-0.14
-0.135
-0.13
-0.125
-0.15
-0.17
-0.18
-0.18
-0.18
-0.175
-0.165
-0.155
-0.155
-0.175
-0.18
-0.19
-0.195
-0.19
-0.175
-0.165
-0.14
-0.13
-0.135
-0.13
-0.145
-0.16
-0.165
-0.18
-0.17
-0.15
-0.13
-0.125
-0.145
-0.16
-0.16
-0.155
-0.145
-0.155
-0.16
-0.17
-0.17
-0.165
-0.15
-0.135
-0.14
-0.145
-0.145
-0.125
-0.135
-0.155
-0.155
-0.17
-0.185
-0.19
-0.185
-0.165
-0.15
-0.145
-0.15
-0.135
-0.13
-0.13
-0.13
-0.135
-0.155
-0.155
-0.155
-0.15
-0.155
-0.165
-0.185
-0.185
-0.18
-0.18
-0.175
-0.19
-0.18
-0.19
-0.175
-0.175
-0.155
-0.165
-0.16
-0.155
-0.155
-0.185
-0.2
-0.195
-0.21
-0.19
-0.19
-0.175
-0.16
-0.175
-0.175
-0.18
-0.185
-0.185
-0.19
-0.19
-0.17
-0.165
-0.165
-0.17
-0.155
-0.17
-0.18
-0.185
-0.195
-0.205
-0.215
-0.205
-0.2
-0.175
-0.17
-0.155
-0.16
-0.175
-0.19
-0.19
-0.18
-0.165
-0.155
-0.16
-0.16
-0.19
-0.2
-0.22
-0.225
-0.205
-0.19
-0.165
-0.15
-0.15
-0.15
-0.19
-0.21
-0.21
-0.205
-0.205
-0.19
-0.19
-0.205
-0.215
-0.225
-0.22
-0.21
-0.205
-0.2
-0.205
-0.2
-0.2
-0.195
-0.18
-0.165
-0.155
-0.16
-0.18
-0.195
-0.23
-0.235
-0.225
-0.185
-0.175
-0.165
-0.185
-0.2
-0.2
-0.205
-0.22
-0.215
-0.225
-0.185
-0.195
-0.195
-0.21
-0.205
-0.21
-0.195
-0.19
-0.19
-0.19
-0.2
-0.2
-0.19
-0.185
-0.17
-0.15
-0.15
-0.175
-0.19
-0.22
-0.22
