MLII
-0.095
-0.095
-0.095
-0.095
-0.095
-0.095
-0.095
-0.095
-0.095
-0.09
-0.085
-0.07
-0.06
-0.04
-0.03
-0.015
0.01
0.055
0.095
0.15
0.215
0.29
0.365
0.445
0.545
0.64
0.755
0.85
0.895
0.875
0.745
0.49
0.13
-0.325
-0.765
-1.15
-1.45
-1.67
-1.825
-1.955
-2.065
-2.15
-2.23
-2.265
-2.29
-2.255
-2.215
-2.14
-2.05
-1.93
-1.82
-1.715
-1.59
-1.505
-1.43
-1.36
-1.29
-1.21
-1.11
-0.995
-0.88
-0.78
-0.7
-0.63
-0.575
-0.53
-0.49
-0.445
-0.345
-0.23
-0.09
0.035
0.185
0.27
0.33
0.35
0.35
0.325
0.3
0.31
0.315
0.33
0.35
0.375
0.395
0.39
0.41
0.435
0.445
0.45
0.46
0.465
0.48
0.48
0.51
0.535
0.56
0.575
0.61
0.63
0.635
0.64
0.655
0.67
0.685
0.705
0.725
0.75
0.775
0.805
0.825
0.85
0.86
0.865
0.875
0.895
0.91
0.925
0.935
0.945
0.95
0.95
0.945
0.94
0.94
0.925
0.905
0.88
0.85
0.82
0.81
0.78
0.76
0.735
0.7
0.665
0.625
0.585
0.55
0.505
0.47
0.43
0.4
0.39
0.36
0.34
0.31
0.28
0.24
0.21
0.18
0.155
0.13
0.105
0.09
0.085
0.065
0.06
0.04
0.025
0.015
-0.005
-0.02
-0.01
-0.02
-0.02
-0.02
-0.01
0.0
0.01
0.0
-0.005
-0.005
-0.01
-0.01
-0.02
-0.01
-0.01
-0.015
-0.005
-0.005
0.005
-0.005
-0.01
-0.015
-0.025
-0.04
-0.04
-0.04
-0.05
-0.045
-0.05
-0.03
-0.03
-0.025
-0.035
-0.05
-0.055
-0.06
-0.07
-0.07
-0.065
-0.055
-0.045
-0.04
-0.04
-0.05
-0.055
-0.06
-0.065
-0.08
-0.08
-0.075
-0.095
-0.085
-0.07
-0.065
-0.055
-0.06
-0.075
-0.075
-0.095
-0.085
-0.1
-0.1
-0.09
-0.09
-0.085
-0.085
-0.07
-0.1
-0.085
-0.075
-0.085
-0.085
-0.1
-0.1
-0.1
-0.09
-0.1
-0.085
-0.08
-0.09
-0.095
-0.085
-0.085
-0.085
-0.095
-0.095
-0.09
-0.09
-0.09
-0.08
-0.075
-0.08
-0.06
-0.04
-0.035
-0.03
-0.01
0.01
0.025
0.045
0.065
0.08
0.1
0.12
0.145
0.18
0.2
0.215
0.215
0.215
0.18
0.155
0.145
0.155
0.165
0.17
0.17
0.15
0.125
0.095
0.055
0.03
0.0
-0.025
-0.035
-0.045
-0.045
-0.065
-0.085
-0.115
-0.14
-0.145
-0.145
-0.155
-0.135
-0.135
-0.135
-0.13
-0.105
-0.105
-0.095
-0.105
-0.11
-0.115
-0.1
-0.05
0.03
0.17
0.36
0.545
0.755
0.955
1.135
1.3
1.46
1.58
1.655
1.68
1.65
1.57
1.42
1.195
0.91
0.61
0.34
0.13
-0.015
-0.09
-0.135
-0.15
-0.17
-0.18
-0.2
-0.235
-0.28
-0.3
-0.31
-0.32
-0.33
-0.33
-0.34
-0.345
-0.35
-0.345
-0.345
-0.35
-0.355
-0.35
-0.355
-0.355
-0.355
-0.365
-0.38
-0.38
-0.385
-0.38
-0.37
-0.37
-0.36
-0.37
-0.375
-0.385
-0.385
-0.385
-0.405
-0.4
-0.405
-0.41
-0.41
-0.42
-0.425
-0.42
-0.425
-0.445
-0.455
-0.475
-0.49
-0.495
-0.51
-0.525
-0.525
-0.535
-0.555
-0.56
-0.575
-0.6
-0.63
-0.655
-0.665
-0.665
-0.68
-0.695
-0.695
-0.7
-0.7
-0.7
-0.705
-0.72
-0.72
-0.715
-0.715
-0.705
-0.685
-0.67
-0.65
-0.635
-0.605
-0.59
-0.555
-0.545
-0.52
-0.5
-0.475
-0.435
-0.41
-0.37
-0.345
-0.325
-0.295
-0.275
-0.255
-0.245
-0.23
-0.22
-0.22
-0.2
-0.19
-0.185
-0.18
-0.17
-0.17
-0.165
-0.15
-0.16
-0.165
-0.18
-0.175
-0.17
-0.175
-0.16
-0.155
-0.165
-0.15
-0.15
-0.165
-0.165
-0.185
-0.175
-0.19
-0.195
-0.19
-0.195
-0.17
-0.16
-0.16
-0.165
-0.165
-0.16
-0.185
-0.19
-0.195
-0.185
-0.19
-0.15
-0.135
-0.105
-0.075
-0.05
-0.025
-0.005
0.0
0.025
0.035
0.065
0.085
0.125
0.175
0.225
0.3
0.38
0.495
0.6
0.715
0.8
0.87
0.93
0.98
1.02
1.105
1.195
1.285
1.39
1.465
1.515
1.55
1.545
1.5
1.385
1.195
0.885
0.495
0.04
-0.46
-0.905
-1.265
-1.545
-1.68
-1.7
-1.655
-1.565
-1.44
-1.3
-1.2
-1.1
-1.01
-0.92
-0.805
-0.7
-0.585
-0.5
-0.455
-0.43
-0.42
-0.42
-0.425
-0.43
-0.42
-0.41
-0.41
-0.405
-0.405
-0.415
-0.41
-0.42
-0.43
-0.43
-0.415
-0.415
-0.39
-0.4
-0.4
-0.405
-0.42
-0.415
-0.415
-0.425
-0.425
-0.425
-0.43
-0.43
-0.42
-0.415
-0.415
-0.42
-0.42
-0.43
-0.435
-0.435
-0.43
-0.43
-0.415
-0.41
-0.405
-0.405
-0.375
-0.37
-0.375
-0.36
-0.35
-0.33
-0.325
-0.305
-0.285
-0.27
-0.245
-0.235
-0.225
-0.205
-0.2
-0.2
-0.19
-0.185
-0.175
-0.17
-0.17
-0.16
-0.145
-0.155
-0.15
-0.16
-0.175
-0.19
-0.2
-0.23
-0.245
-0.24
-0.245
-0.25
-0.275
-0.285
-0.305
-0.315
-0.335
-0.35
-0.35
-0.365
-0.36
-0.37
-0.365
-0.365
-0.365
-0.355
-0.375
-0.38
-0.38
-0.38
-0.39
-0.395
-0.41
-0.4
-0.4
-0.395
-0.39
-0.38
-0.38
-0.375
-0.395
-0.4
-0.415
-0.42
-0.415
-0.4
-0.4
-0.385
-0.375
-0.37
-0.38
-0.38
-0.385
-0.395
-0.41
-0.415
-0.4
-0.4
-0.39
-0.395
-0.375
-0.385
-0.385
-0.39
-0.395
-0.405
-0.41
-0.41
-0.42
-0.43
-0.425
-0.415
-0.405
-0.4
-0.405
-0.41
-0.415
-0.425
-0.415
-0.435
-0.425
-0.425
-0.415
-0.415
-0.41
-0.41
-0.42
-0.41
-0.42
-0.43
-0.435
-0.42
-0.405
-0.39
-0.37
-0.355
-0.33
-0.32
-0.31
-0.3
-0.28
-0.28
-0.275
-0.265
-0.235
-0.195
-0.175
-0.145
-0.115
-0.11
-0.135
-0.155
-0.185
-0.205
-0.205
-0.22
-0.2
-0.195
-0.195
-0.2
-0.225
-0.27
-0.3
-0.335
-0.375
-0.4
-0.415
-0.435
-0.445
-0.45
-0.465
-0.475
-0.465
-0.49
-0.495
-0.495
-0.51
-0.5
-0.51
-0.515
-0.505
-0.5
-0.495
-0.485
-0.48
-0.49
-0.47
-0.46
-0.43
-0.36
-0.245
-0.09
0.11
0.315
0.515
0.695
0.865
1.035
1.165
1.285
1.34
1.345
1.29
1.165
1.0
0.76
0.47
0.19
-0.055
-0.235
-0.36
-0.44
-0.48
-0.51
-0.53
-0.55
-0.58
-0.62
-0.63
-0.65
-0.66
-0.66
-0.665
-0.67
-0.68
-0.695
-0.69
-0.71
-0.715
-0.705
-0.705
-0.7
-0.705
-0.7
-0.705
-0.7
-0.72
-0.735
-0.735
-0.745
-0.74
-0.725
-0.725
-0.715
-0.725
-0.715
-0.72
-0.72
-0.74
-0.745
-0.745
-0.755
-0.755
-0.755
-0.76
-0.755
-0.75
-0.76
-0.77
-0.79
-0.8
-0.81
-0.83
-0.84
-0.845
-0.865
-0.87
-0.875
-0.87
-0.9
-0.905
-0.925
-0.94
-0.95
-0.97
-0.985
-1.005
-1.0
-1.0
-1.0
-1.01
-1.01
-1.005
-1.0
-0.995
-0.985
-0.985
-0.985
-0.955
-0.935
-0.915
-0.875
-0.85
-0.825
-0.805
-0.78
-0.76
-0.735
-0.715
-0.705
-0.685
-0.66
-0.625
-0.605
-0.575
-0.565
-0.56
-0.56
-0.555
-0.555
-0.55
-0.545
-0.545
-0.535
-0.53
-0.525
-0.51
-0.51
-0.515
-0.51
-0.51
-0.525
-0.53
-0.53
-0.53
-0.52
-0.53
-0.52
-0.505
-0.5
-0.5
-0.52
-0.515
-0.525
-0.53
-0.53
-0.53
-0.525
-0.52
-0.51
-0.505
-0.5
-0.5
-0.52
-0.52
-0.535
-0.54
-0.52
-0.51
-0.5
-0.485
-0.465
-0.44
-0.415
-0.4
-0.38
-0.38
-0.36
-0.36
-0.335
-0.315
-0.275
-0.23
-0.185
-0.16
-0.17
-0.18
-0.205
-0.225
-0.245
-0.245
-0.24
-0.235
-0.235
-0.25
-0.275
-0.295
-0.335
-0.375
-0.41
-0.44
-0.465
-0.47
-0.5
-0.5
-0.525
-0.535
-0.53
-0.525
-0.525
-0.53
-0.51
-0.525
-0.525
-0.535
-0.535
-0.525
-0.505
-0.515
-0.505
-0.485
-0.48
-0.46
-0.415
-0.325
-0.185
0.0
0.195
0.4
0.61
0.79
0.945
1.105
1.225
1.315
1.335
1.305
1.225
1.095
0.9
0.655
0.37
0.095
-0.12
-0.275
-0.38
-0.445
-0.475
-0.5
-0.525
-0.54
-0.57
-0.6
-0.625
-0.63
-0.625
-0.63
-0.62
-0.63
-0.625
-0.65
-0.645
-0.65
-0.655
-0.655
-0.655
-0.65
-0.645
-0.63
-0.63
-0.65
-0.66
-0.665
-0.67
-0.675
-0.68
-0.67
-0.65
-0.65
-0.635
-0.645
-0.645
-0.645
-0.665
-0.665
-0.685
-0.69
-0.695
-0.685
-0.695
-0.7
-0.685
-0.695
-0.715
-0.72
-0.735
-0.75
-0.765
-0.77
-0.775
-0.785
-0.79
-0.795
-0.805
-0.795
-0.82
-0.81
-0.805
-0.82
-0.835
-0.835
-0.845
-0.84
-0.83
-0.815
-0.8
-0.78
-0.77
-0.75
-0.74
-0.72
-0.715
-0.695
-0.68
-0.645
-0.625
-0.605
-0.575
-0.55
-0.54
-0.52
-0.515
-0.505
-0.49
-0.485
-0.48
-0.465
-0.465
-0.445
-0.435
-0.42
-0.43
-0.42
-0.425
-0.415
-0.41
-0.415
-0.395
-0.375
-0.36
-0.34
-0.295
-0.27
-0.23
-0.19
-0.145
-0.105
-0.045
0.02
0.1
0.19
0.28
0.4
0.5
0.555
0.53
0.42
0.18
-0.185
-0.625
-1.085
-1.48
-1.78
-2.005
-2.14
-2.23
-2.32
-2.38
-2.435
-2.47
-2.47
-2.455
-2.42
-2.335
-2.24
-2.13
-2.015
-1.895
-1.79
-1.68
-1.6
-1.55
-1.49
-1.405
-1.29
-1.16
-1.02
-0.925
-0.86
-0.82
-0.79
-0.74
-0.65
-0.52
-0.365
-0.18
-0.025
0.08
0.15
0.17
0.15
0.135
0.115
0.105
0.115
0.135
0.155
0.165
0.185
0.2
0.205
0.22
0.245
0.275
0.29
0.31
0.315
0.335
0.34
0.355
0.37
0.38
0.405
0.435
0.455
0.49
0.5
0.53
0.555
0.555
0.57
0.585
0.61
0.645
0.665
0.69
0.71
0.735
0.755
0.77
0.775
0.775
0.78
0.77
0.76
0.76
0.745
0.755
0.745
0.73
0.71
0.685
0.65
0.605
0.56
0.515
0.475
0.445
0.415
0.375
0.345
0.305
0.26
0.23
0.185
0.14
0.1
0.065
0.03
0.005
-0.02
-0.05
-0.06
-0.06
-0.08
-0.11
-0.125
-0.145
-0.16
-0.18
-0.19
-0.185
-0.19
-0.2
-0.19
-0.18
-0.195
-0.19
-0.205
-0.215
-0.215
-0.225
-0.24
-0.23
-0.22
-0.215
-0.21
-0.2
-0.195
-0.195
-0.19
-0.21
-0.21
-0.215
-0.225
-0.22
-0.22
-0.225
-0.225
-0.21
-0.21
-0.205
-0.21
-0.22
-0.235
-0.235
-0.245
-0.25
-0.24
-0.24
-0.235
-0.22
-0.225
-0.23
-0.24
-0.24
-0.255
-0.26
-0.26
-0.27
-0.27
-0.255
-0.26
-0.245
-0.25
-0.235
-0.235
-0.24
-0.24
-0.255
-0.26
-0.265
-0.245
-0.245
-0.235
-0.23
-0.23
-0.24
-0.245
-0.245
-0.255
-0.255
-0.245
-0.24
-0.245
-0.25
-0.24
-0.23
-0.22
-0.23
-0.22
-0.225
-0.235
-0.245
-0.23
-0.23
-0.24
-0.235
-0.225
-0.2
-0.2
-0.2
-0.2
-0.21
-0.22
-0.21
-0.21
-0.19
-0.175
-0.155
-0.12
-0.105
-0.08
-0.07
-0.045
-0.04
-0.045
-0.05
-0.03
-0.005
0.035
0.07
0.125
0.16
0.165
0.15
0.11
0.08
0.075
0.065
0.06
0.08
0.09
0.085
0.065
0.055
0.015
-0.025
-0.045
-0.07
-0.115
-0.135
-0.155
-0.17
-0.19
-0.195
-0.19
-0.19
-0.205
-0.2
-0.2
-0.205
-0.205
-0.2
-0.21
-0.21
-0.205
-0.2
-0.19
-0.185
-0.17
-0.15
-0.11
-0.05
0.055
0.205
0.38
0.585
0.79
0.98
1.14
1.315
1.445
1.57
1.64
1.635
1.58
1.48
1.325
1.095
0.83
0.545
0.305
0.12
-0.015
-0.085
-0.14
-0.175
-0.19
-0.23
-0.27
-0.3
-0.325
-0.335
-0.345
-0.345
-0.34
-0.345
-0.34
-0.355
-0.365
-0.37
-0.39
-0.38
-0.37
-0.38
-0.37
-0.375
-0.365
-0.375
-0.37
-0.37
-0.39
-0.39
-0.405
-0.4
-0.405
-0.395
-0.39
-0.39
-0.395
-0.405
-0.4
-0.405
-0.43
-0.43
-0.44
-0.435
-0.45
-0.445
-0.445
-0.445
-0.46
-0.475
-0.495
-0.51
-0.525
-0.545
-0.56
-0.57
-0.59
-0.6
-0.605
-0.61
-0.63
-0.64
-0.66
-0.68
-0.705
-0.715
-0.735
-0.745
-0.74
-0.745
-0.74
-0.74
-0.725
-0.73
-0.725
-0.725
-0.725
-0.705
-0.7
-0.68
-0.655
-0.625
-0.6
-0.565
-0.545
-0.515
-0.485
-0.465
-0.44
-0.415
-0.39
-0.37
-0.34
-0.3
-0.275
-0.255
-0.24
-0.225
-0.195
-0.2
-0.195
-0.19
-0.195
-0.185
-0.175
-0.175
-0.155
-0.155
-0.145
-0.15
-0.15
-0.155
-0.15
-0.16
-0.15
-0.155
-0.145
-0.14
-0.135
-0.12
-0.12
-0.13
-0.13
-0.135
-0.135
-0.145
-0.155
-0.15
-0.145
-0.145
-0.135
-0.115
-0.12
-0.12
-0.115
-0.11
-0.11
-0.105
-0.1
-0.08
-0.06
-0.03
0.0
0.035
0.06
0.07
0.095
0.125
0.145
0.18
0.225
0.285
0.35
0.44
0.555
0.67
0.79
0.875
0.965
1.015
1.06
1.105
1.175
1.265
1.35
1.45
1.525
1.575
1.595
1.565
1.475
1.315
1.075
0.725
0.3
-0.18
-0.645
-1.045
-1.36
-1.555
-1.64
-1.64
-1.57
-1.48
-1.355
-1.24
-1.15
-1.075
-0.99
-0.895
-0.77
-0.665
-0.55
-0.445
-0.35
-0.32
-0.28
-0.295
-0.305
-0.305
-0.295
-0.285
-0.285
-0.275
-0.265
-0.255
-0.245
-0.26
-0.26
-0.27
-0.26
-0.27
-0.255
-0.245
-0.255
-0.245
-0.24
-0.23
-0.24
-0.245
-0.25
-0.25
-0.26
-0.255
-0.255
-0.24
-0.235
-0.23
-0.23
-0.23
-0.235
-0.245
-0.24
-0.245
-0.24
-0.23
-0.225
-0.225
-0.195
-0.18
-0.17
-0.165
-0.145
-0.135
-0.14
-0.125
-0.125
-0.11
-0.085
-0.065
-0.05
-0.025
-0.005
0.01
0.025
0.035
0.02
0.02
0.025
0.04
0.045
0.045
0.07
0.065
0.07
0.06
0.045
0.03
0.015
-0.005
-0.02
-0.02
-0.035
-0.04
-0.05
-0.055
-0.06
-0.07
-0.08
-0.11
-0.115
-0.12
-0.135
-0.13
-0.135
-0.125
-0.14
-0.12
-0.13
-0.13
-0.135
-0.145
-0.16
-0.155
-0.16
-0.17
-0.16
-0.16
-0.14
-0.135
-0.13
-0.135
-0.14
-0.135
-0.14
-0.14
-0.145
-0.145
-0.13
-0.12
-0.115
-0.095
-0.105
-0.11
-0.12
-0.12
-0.12
-0.115
-0.125
-0.13
-0.125
-0.11
-0.11
-0.105
-0.105
-0.105
-0.11
-0.12
-0.12
-0.125
-0.135
-0.14
-0.125
-0.115
-0.115
-0.11
-0.105
-0.12
-0.11
-0.12
-0.125
-0.12
-0.115
-0.115
-0.115
-0.11
-0.11
-0.105
-0.095
-0.115
-0.11
-0.115
-0.105
-0.125
-0.115
-0.11
-0.09
-0.08
-0.065
-0.05
-0.03
-0.015
-0.005
0.005
0.01
0.01
0.035
0.045
0.04
0.065
0.09
0.135
0.16
0.19
0.23
0.235
0.22
0.21
0.185
0.165
0.155
0.16
0.165
0.18
0.19
0.17
0.16
0.13
0.09
0.06
0.025
-0.005
-0.04
-0.055
-0.06
-0.065
-0.095
-0.095
-0.105
-0.13
-0.145
-0.155
-0.15
-0.155
-0.145
-0.12
-0.125
-0.12
-0.11
-0.105
-0.1
-0.1
-0.11
-0.09
-0.065
-0.02
0.085
0.24
0.43
0.625
0.835
1.01
1.175
1.33
1.465
1.57
1.625
1.635
1.575
1.47
1.32
1.095
0.835
0.555
0.335
0.14
0.04
-0.05
-0.085
-0.105
-0.13
-0.155
-0.19
-0.22
-0.245
-0.255
-0.27
-0.28
-0.285
-0.295
-0.295
-0.295
-0.295
-0.295
-0.285
-0.29
-0.285
-0.29
-0.29
-0.3
-0.305
-0.32
-0.315
-0.32
-0.305
-0.315
-0.305
-0.31
-0.315
-0.315
-0.31
-0.33
-0.335
-0.34
-0.35
-0.355
-0.36
-0.365
-0.37
-0.365
-0.355
-0.36
-0.38
-0.4
-0.41
-0.435
-0.465
-0.47
-0.475
-0.49
-0.495
-0.5
-0.51
-0.52
-0.535
-0.55
-0.56
-0.575
-0.59
-0.605
-0.605
-0.62
-0.625
-0.61
-0.585
-0.58
-0.58
-0.57
-0.565
-0.56
-0.55
-0.53
-0.51
-0.49
-0.47
-0.43
-0.395
-0.385
-0.35
-0.335
-0.315
-0.305
-0.285
-0.255
-0.23
-0.2
-0.175
-0.15
-0.13
-0.125
-0.1
-0.11
-0.11
-0.115
-0.125
-0.115
-0.11
-0.095
-0.1
-0.09
-0.09
-0.08
-0.08
-0.085
-0.085
-0.09
-0.1
-0.095
-0.09
-0.085
-0.09
-0.08
-0.09
-0.085
-0.095
-0.1
-0.095
-0.095
-0.1
-0.1
-0.095
-0.095
-0.095
-0.1
-0.08
-0.085
-0.08
-0.085
-0.09
-0.095
-0.1
-0.09
-0.075
-0.06
-0.05
-0.045
-0.015
-0.005
0.02
0.04
0.05
0.07
0.075
0.09
0.11
0.12
0.155
0.185
0.235
0.24
0.255
0.245
0.225
0.195
0.185
0.165
0.155
0.19
0.19
0.195
0.18
0.155
0.125
0.085
0.05
0.015
0.005
-0.025
-0.02
-0.035
-0.045
-0.06
-0.07
-0.08
-0.09
-0.1
-0.105
-0.105
-0.11
-0.1
-0.1
-0.085
-0.075
-0.065
-0.065
-0.075
-0.075
-0.095
-0.085
-0.07
-0.04
0.025
0.155
0.295
0.49
0.695
0.9
1.08
1.255
1.41
1.515
1.6
1.635
1.61
1.54
1.415
1.225
1.015
0.74
0.485
0.28
0.115
0.025
-0.03
-0.08
-0.085
-0.095
-0.125
-0.15
-0.185
-0.205
-0.23
-0.225
-0.23
-0.23
-0.24
-0.255
-0.255
-0.26
-0.26
-0.26
-0.255
-0.255
-0.25
-0.26
-0.265
-0.265
-0.26
-0.28
-0.28
-0.285
-0.27
-0.26
-0.265
-0.26
-0.27
-0.28
-0.29
-0.3
-0.305
-0.31
-0.325
-0.34
-0.34
-0.32
-0.325
-0.325
-0.345
-0.345
-0.365
-0.375
-0.4
-0.41
-0.42
-0.435
-0.445
-0.455
-0.46
-0.47
-0.475
-0.495
-0.5
-0.52
-0.525
-0.54
-0.54
-0.56
-0.54
-0.525
-0.525
-0.515
-0.5
-0.49
-0.49
-0.475
-0.465
-0.45
-0.44
-0.4
-0.375
-0.35
-0.32
-0.3
-0.285
-0.27
-0.26
-0.26
-0.245
-0.245
-0.235
-0.215
-0.205
-0.2
-0.19
-0.19
-0.18
-0.19
-0.185
-0.19
-0.205
-0.2
-0.195
-0.205
-0.16
-0.15
-0.125
-0.085
-0.065
-0.02
0.03
0.08
0.14
0.195
0.28
0.36
0.48
0.59
0.68
0.7
0.62
0.39
0.0
-0.49
-1.015
-1.475
-1.835
-2.09
-2.24
-2.345
-2.4
-2.445
-2.455
-2.445
-2.43
-2.39
-2.33
-2.25
-2.13
-2.015
-1.89
-1.77
-1.67
-1.6
-1.545
-1.48
-1.4
-1.28
-1.16
-1.04
-0.955
-0.89
-0.85
-0.82
-0.775
-0.715
-0.615
-0.47
-0.305
-0.155
-0.015
0.065
0.105
0.125
0.115
0.095
0.095
0.11
0.12
0.145
0.145
0.16
0.17
0.17
0.185
0.21
0.215
0.235
0.255
0.285
0.295
0.305
0.31
0.315
0.33
0.345
0.36
0.385
0.41
0.43
0.47
0.505
0.5
0.52
0.55
0.565
0.57
0.575
0.6
0.61
0.615
0.635
0.65
0.65
0.655
0.645
0.625
0.6
0.575
0.555
0.535
0.52
0.505
0.465
0.435
0.405
0.36
0.3
0.24
0.2
0.155
0.12
0.07
0.04
0.015
-0.02
-0.05
-0.085
-0.12
-0.16
-0.19
-0.22
-0.26
-0.305
-0.335
-0.36
-0.37
-0.38
-0.39
-0.395
-0.41
-0.43
-0.45
-0.47
-0.49
-0.51
-0.515
-0.515
-0.505
-0.515
-0.52
-0.51
-0.525
-0.525
-0.54
-0.55
-0.565
-0.57
-0.57
-0.585
-0.575
-0.56
-0.565
-0.56
-0.565
-0.56
-0.57
-0.565
-0.57
-0.58
-0.58
-0.6
-0.6
-0.625
-0.625
-0.62
-0.625
-0.61
-0.62
-0.63
-0.635
-0.665
-0.675
-0.675
-0.67
-0.67
-0.67
-0.655
-0.66
-0.675
-0.69
-0.685
-0.695
-0.69
-0.695
-0.695
-0.685
-0.695
-0.685
-0.69
-0.705
-0.705
-0.72
-0.725
-0.735
-0.75
-0.74
-0.735
-0.72
-0.705
-0.69
-0.685
-0.71
-0.725
-0.74
-0.755
-0.765
-0.765
-0.765
-0.77
-0.765
-0.77
-0.77
-0.78
-0.785
-0.8
-0.8
-0.795
-0.805
-0.8
-0.785
-0.795
-0.79
-0.785
-0.79
-0.795
-0.795
-0.78
-0.78
-0.785
-0.79
-0.81
-0.825
-0.83
-0.825
-0.8
-0.78
-0.735
-0.715
-0.715
-0.725
-0.73
-0.73
-0.725
-0.705
-0.665
-0.645
-0.61
-0.58
-0.575
-0.555
-0.565
-0.585
-0.585
-0.585
-0.59
-0.58
-0.59
-0.605
-0.655
-0.675
-0.72
-0.76
-0.8
-0.84
-0.855
-0.865
-0.89
-0.9
-0.905
-0.905
-0.905
-0.905
-0.9
-0.91
-0.92
-0.935
-0.945
-0.96
-0.94
-0.94
-0.94
-0.93
-0.93
-0.91
-0.87
-0.84
-0.72
-0.565
-0.36
-0.125
0.095
0.32
0.52
0.705
0.87
1.005
1.08
1.09
1.025
0.85
0.595
0.26
-0.115
-0.465
-0.72
-0.87
-0.92
-0.91
-0.89
-0.885
-0.89
-0.93
-0.975
-1.03
-1.065
-1.075
-1.08
-1.08
-1.08
-1.065
-1.055
-1.07
-1.07
-1.09
-1.12
-1.125
-1.135
-1.125
-1.12
-1.11
-1.105
-1.11
-1.1
-1.1
-1.105
-1.115
-1.125
-1.135
-1.145
-1.145
-1.125
-1.13
-1.105
-1.105
-1.12
-1.125
-1.13
-1.14
-1.16
-1.16
-1.195
-1.18
-1.19
-1.19
-1.195
-1.195
-1.195
-1.205
-1.225
-1.245
-1.255
-1.27
-1.305
-1.3
-1.32
-1.325
-1.32
-1.325
-1.34
-1.35
-1.38
-1.38
-1.39
-1.41
-1.42
-1.425
-1.435
-1.435
-1.43
-1.425
-1.425
-1.425
-1.42
-1.415
-1.395
-1.385
-1.37
-1.345
-1.34
-1.31
-1.28
-1.25
-1.22
-1.19
-1.155
-1.13
-1.1
-1.08
-1.06
-1.03
-1.01
-0.98
-0.95
-0.94
-0.9
-0.905
-0.88
-0.855
-0.865
-0.87
-0.88
-0.87
-0.86
-0.865
-0.855
-0.855
-0.845
-0.86
-0.86
-0.86
-0.845
-0.855
-0.855
-0.855
-0.855
-0.845
-0.84
-0.83
-0.815
-0.805
-0.8
-0.8
-0.82
-0.83
-0.845
-0.84
-0.835
-0.83
-0.825
-0.815
-0.825
-0.805
-0.795
-0.805
-0.8
-0.805
-0.8
-0.795
-0.79
-0.78
-0.76
-0.75
-0.745
-0.73
-0.715
-0.695
-0.685
-0.675
-0.665
-0.645
-0.65
-0.635
-0.61
-0.585
-0.545
-0.51
-0.485
-0.47
-0.475
-0.48
-0.505
-0.52
-0.525
-0.515
-0.51
-0.5
-0.49
-0.495
-0.505
-0.545
-0.58
-0.605
-0.64
-0.655
-0.665
-0.685
-0.695
-0.7
-0.72
-0.73
-0.745
-0.75
-0.765
-0.77
-0.77
-0.765
-0.765
-0.76
-0.755
-0.75
-0.74
-0.735
-0.72
-0.72
-0.72
-0.73
-0.705
-0.645
-0.56
-0.41
-0.215
0.01
0.265
0.48
0.695
0.885
1.05
1.18
1.265
1.28
1.21
1.07
0.85
0.535
0.175
-0.19
-0.44
-0.62
-0.71
-0.745
-0.725
-0.72
-0.725
-0.74
-0.77
-0.785
-0.815
-0.82
-0.815
-0.82
-0.83
-0.835
-0.85
-0.845
-0.85
-0.84
-0.835
-0.82
-0.815
-0.825
-0.835
-0.835
-0.84
-0.845
-0.855
-0.845
-0.84
-0.855
-0.85
-0.845
-0.845
-0.835
-0.85
-0.865
-0.85
-0.86
-0.865
-0.875
-0.865
-0.855
-0.855
-0.855
-0.875
-0.875
-0.9
-0.905
-0.915
-0.93
-0.955
-0.945
-0.96
-0.96
-0.97
-0.965
-0.975
-0.965
-0.98
-0.99
-1.01
-1.025
-1.025
-1.015
-1.005
-1.0
-1.0
-0.99
-0.98
-0.97
-0.955
-0.945
-0.94
-0.915
-0.905
-0.87
-0.845
-0.81
-0.785
-0.75
-0.72
-0.7
-0.69
-0.68
-0.665
-0.665
-0.65
-0.64
-0.63
-0.62
-0.605
-0.6
-0.585
-0.59
-0.595
-0.585
-0.6
-0.605
-0.6
-0.6
-0.58
-0.575
-0.585
-0.565
-0.58
-0.575
-0.56
-0.57
-0.575
-0.58
-0.575
-0.58
-0.575
-0.58
-0.575
-0.555
-0.55
-0.545
-0.535
-0.545
-0.545
-0.55
-0.555
-0.555
-0.545
-0.555
-0.545
-0.535
-0.53
-0.51
-0.515
-0.52
-0.515
-0.51
-0.51
-0.5
-0.495
-0.465
-0.44
-0.415
-0.39
-0.38
-0.37
-0.365
-0.355
-0.34
-0.31
-0.285
-0.24
-0.215
-0.2
-0.19
-0.2
-0.215
-0.225
-0.235
-0.25
-0.24
-0.23
-0.22
-0.22
-0.23
-0.25
-0.285
-0.315
-0.35
-0.38
-0.395
-0.41
-0.425
-0.43
-0.44
-0.435
-0.445
-0.45
-0.45
-0.455
-0.455
-0.445
-0.455
-0.455
-0.465
-0.465
-0.455
-0.445
-0.445
-0.435
-0.435
-0.42
-0.41
-0.39
-0.35
-0.29
-0.17
-0.02
0.19
0.4
0.63
0.82
1.02
1.2
1.355
1.485
1.56
1.575
1.515
1.4
1.225
0.975
0.66
0.325
0.055
-0.165
-0.3
-0.35
-0.37
-0.38
-0.385
-0.39
-0.425
-0.46
-0.52
-0.525
-0.515
-0.515
-0.52
-0.52
-0.515
-0.53
-0.545
-0.555
-0.555
-0.555
-0.535
-0.525
-0.51
-0.515
-0.535
-0.525
-0.53
-0.535
-0.535
-0.54
-0.535
-0.525
-0.52
-0.53
-0.535
-0.53
-0.535
-0.55
-0.545
-0.555
-0.565
-0.565
-0.565
-0.565
-0.56
-0.565
-0.56
-0.57
-0.57
-0.575
-0.59
-0.6
-0.625
-0.64
-0.645
-0.655
-0.665
-0.67
-0.67
-0.665
-0.68
-0.69
-0.7
-0.715
-0.73
-0.745
-0.755
-0.76
-0.76
-0.745
-0.735
-0.73
-0.72
-0.705
-0.69
-0.68
-0.68
-0.66
-0.635
-0.605
-0.575
-0.545
-0.52
-0.495
-0.47
-0.45
-0.425
-0.41
-0.4
-0.39
-0.365
-0.345
-0.32
-0.31
-0.285
-0.265
-0.28
-0.27
-0.265
-0.28
-0.29
-0.275
-0.265
-0.25
-0.23
-0.205
-0.18
-0.135
-0.1
-0.06
-0.02
0.025
0.075
0.14
0.215
0.3
0.405
0.52
0.615
0.695
0.705
0.625
0.445
0.145
-0.23
-0.63
-0.985
-1.3
-1.525
-1.675
-1.795
-1.885
-1.97
-2.05
-2.125
-2.175
-2.19
-2.175
-2.125
-2.035
-1.96
-1.87
-1.765
-1.65
-1.555
-1.46
-1.4
-1.34
-1.27
-1.195
-1.085
-0.94
-0.805
-0.695
-0.605
-0.555
-0.525
-0.5
-0.445
-0.36
-0.25
-0.09
0.085
0.21
0.295
0.325
0.32
0.3
0.27
0.245
0.25
0.255
0.26
0.28
0.29
0.31
0.325
0.34
0.36
0.37
0.385
0.395
0.415
0.405
0.42
0.425
0.445
0.455
0.495
0.515
0.545
0.56
0.58
0.6
0.605
0.635
0.645
0.665
0.685
0.705
0.73
0.76
0.805
0.82
0.84
0.855
0.855
0.86
0.86
0.865
0.865
0.875
0.875
0.87
0.84
0.83
0.82
0.795
0.765
0.73
0.71
0.675
0.635
0.615
0.585
0.545
0.5
0.475
0.43
0.4
0.36
0.31
0.28
0.23
0.215
0.18
0.16
0.145
0.125
0.105
0.075
0.065
0.06
0.035
0.02
0.005
-0.01
-0.02
-0.025
-0.025
-0.04
-0.035
-0.03
-0.035
-0.035
-0.045
-0.045
-0.06
-0.055
-0.05
-0.045
-0.035
-0.035
-0.025
-0.04
-0.035
-0.045
-0.045
-0.04
-0.055
-0.045
-0.055
-0.04
-0.05
-0.035
-0.03
-0.035
-0.03
-0.035
-0.055
-0.06
-0.07
-0.075
-0.065
-0.085
-0.07
-0.06
-0.05
-0.055
-0.04
-0.06
-0.07
-0.085
-0.085
-0.075
-0.075
-0.07
-0.07
-0.06
-0.06
-0.06
-0.065
-0.08
-0.1
-0.095
-0.1
-0.105
-0.09
-0.075
-0.075
-0.07
-0.06
-0.07
-0.075
-0.08
-0.09
-0.08
-0.085
-0.08
-0.1
-0.085
-0.08
-0.07
-0.05
-0.055
-0.055
-0.065
-0.065
-0.08
-0.07
-0.08
-0.07
-0.06
-0.065
-0.06
-0.05
-0.06
-0.05
-0.055
-0.06
-0.055
-0.06
-0.07
-0.055
-0.045
-0.05
-0.035
-0.025
-0.01
-0.01
0.0
0.005
0.025
0.04
0.065
0.09
0.095
0.11
0.13
0.145
0.165
0.195
0.22
0.25
0.265
0.27
0.26
0.24
0.22
0.215
0.22
0.235
0.22
0.235
0.23
0.2
0.17
0.125
0.1
0.075
0.055
0.05
0.045
0.02
0.015
-0.005
-0.02
-0.03
-0.04
-0.05
-0.05
-0.04
-0.03
-0.025
0.0
0.0
-0.005
0.0
-0.01
-0.01
-0.005
0.0
0.06
0.145
0.295
0.485
0.695
0.915
1.11
1.29
1.47
1.64
1.785
1.875
1.905
1.87
1.76
1.585
1.33
1.01
0.69
0.425
0.225
0.085
0.025
0.0
0.0
-0.015
-0.03
-0.055
-0.095
-0.12
-0.135
-0.145
-0.145
-0.155
-0.165
-0.16
-0.175
-0.16
-0.16
-0.16
-0.155
-0.16
-0.165
-0.17
-0.19
-0.175
-0.18
-0.18
-0.19
-0.185
-0.19
-0.185
-0.18
-0.17
-0.19
-0.185
-0.19
-0.19
-0.2
-0.2
-0.215
-0.215
-0.22
-0.215
-0.225
-0.23
-0.23
-0.24
-0.255
-0.27
-0.275
-0.295
-0.3
-0.32
-0.325
-0.33
-0.34
-0.35
-0.355
-0.37
-0.395
-0.43
-0.44
-0.47
-0.48
-0.49
-0.495
-0.51
-0.5
-0.5
-0.505
-0.5
-0.5
-0.495
-0.5
-0.495
-0.49
-0.47
-0.46
-0.43
-0.4
-0.36
-0.335
-0.31
-0.285
-0.255
-0.22
-0.2
-0.16
-0.125
-0.09
-0.065
-0.03
-0.005
0.015
0.015
0.045
0.065
0.065
0.065
0.065
0.075
0.085
0.08
0.105
0.115
0.115
0.125
0.12
0.115
0.1
0.095
0.105
0.115
0.125
0.125
0.125
0.14
0.145
0.145
0.13
0.125
0.12
0.13
0.12
0.115
0.115
0.14
0.14
0.135
0.14
0.14
0.145
0.135
0.14
0.135
0.155
0.165
0.19
0.21
0.23
0.265
0.265
0.28
0.3
0.3
0.305
0.32
0.34
0.37
0.405
0.445
0.485
0.505
0.49
0.46
0.44
0.425
0.41
0.415
0.42
0.435
0.44
0.42
0.41
0.39
0.36
0.33
0.305
0.275
0.25
0.24
0.22
0.19
0.19
0.19
0.18
0.18
0.175
0.18
0.175
0.17
0.165
0.17
0.185
0.185
0.195
0.2
0.2
0.22
0.235
0.255
0.275
0.325
0.41
0.535
0.72
0.92
1.12
1.305
1.47
1.61
1.765
1.9
1.98
2.03
2.02
1.96
1.86
1.685
1.45
1.155
0.86
0.61
0.405
0.265
0.185
0.15
0.135
0.125
0.13
0.115
0.105
0.095
0.095
0.095
0.075
0.085
0.085
0.08
0.075
0.055
0.05
0.06
0.06
0.05
0.07
0.075
0.075
0.075
0.07
0.055
0.055
0.05
0.05
0.05
0.04
0.06
0.07
0.065
0.07
0.055
0.05
0.035
0.025
0.02
0.005
0.015
0.015
0.015
0.01
0.015
0.0
-0.005
-0.015
-0.035
-0.055
-0.07
-0.09
-0.095
-0.1
-0.1
-0.1
-0.1
-0.11
-0.115
-0.14
-0.15
-0.16
-0.17
-0.17
-0.16
-0.155
-0.14
-0.115
-0.095
-0.1
-0.075
-0.065
-0.05
-0.035
-0.01
0.015
0.05
0.075
0.1
0.13
0.165
0.19
0.21
0.215
0.225
0.23
0.24
0.265
0.275
0.29
0.285
0.295
0.305
0.31
0.32
0.31
0.305
0.29
0.275
0.285
0.285
0.295
0.305
0.31
0.32
0.32
0.315
0.315
0.315
0.305
0.295
0.29
0.29
0.3
0.295
0.305
0.32
0.32
0.315
0.31
0.305
0.295
0.29
0.295
0.295
0.3
0.31
0.325
0.33
0.33
0.345
0.365
0.375
0.38
0.39
0.41
0.435
0.445
0.47
0.485
0.51
0.545
0.575
0.6
0.64
0.65
0.64
0.635
0.62
0.605
0.59
0.6
0.61
0.615
0.62
0.605
0.575
0.535
0.485
0.455
0.435
0.41
0.405
0.385
0.385
0.37
0.35
0.325
0.325
0.295
0.29
0.29
0.3
0.325
0.325
0.325
0.34
0.35
0.35
0.355
0.34
0.33
0.32
0.335
0.39
0.48
0.595
0.76
0.955
1.155
1.335
1.51
1.66
1.815
1.935
2.03
2.065
2.075
2.02
1.915
1.75
1.5
1.22
0.935
0.71
0.535
0.42
0.35
0.33
0.335
0.33
0.32
0.295
0.26
0.225
0.205
0.185
0.185
0.175
0.175
0.18
0.175
0.185
0.19
0.195
0.19
0.19
0.175
0.175
0.155
0.16
0.165
0.165
0.175
0.175
0.18
0.18
0.18
0.175
0.165
0.165
0.16
0.15
0.155
0.145
0.135
0.135
0.155
0.16
0.145
0.14
0.135
0.115
0.1
0.1
0.085
0.07
0.06
0.045
0.045
0.03
0.025
0.01
-0.005
-0.02
-0.04
-0.05
-0.07
-0.08
-0.09
-0.09
-0.08
-0.07
-0.08
-0.08
-0.09
-0.1
-0.085
-0.08
-0.07
-0.05
-0.025
0.005
0.03
0.055
0.08
0.095
0.12
0.135
0.155
0.18
0.195
0.225
0.255
0.275
0.29
0.315
0.325
0.325
0.31
0.335
0.33
0.32
0.325
0.33
0.345
0.36
0.37
0.375
0.375
0.37
0.36
0.36
0.355
0.35
0.36
0.35
0.36
0.345
0.365
0.365
0.355
0.36
0.37
0.365
0.355
0.345
0.33
0.335
0.345
0.35
0.365
0.37
0.37
0.38
0.365
0.36
0.35
0.35
0.36
0.355
0.37
0.365
0.385
0.415
0.445
0.45
0.46
0.475
0.485
0.49
0.5
0.515
0.545
0.59
0.625
0.67
0.69
0.695
0.68
0.66
0.615
0.6
0.59
0.595
0.605
0.605
0.61
0.6
0.58
0.55
0.525
0.48
0.445
0.405
0.385
0.365
0.375
0.365
0.35
0.345
0.33
0.33
0.315
0.315
0.3
0.295
0.305
0.31
0.315
0.325
0.325
0.325
0.34
0.345
0.335
0.34
0.345
0.385
0.455
0.565
0.73
0.895
1.09
1.275
1.44
1.595
1.735
1.86
1.95
1.995
2.01
1.98
1.93
1.835
1.665
1.45
1.18
0.93
0.71
0.545
0.42
0.365
0.335
0.32
0.325
0.31
0.275
0.255
0.21
0.185
0.175
0.165
0.16
0.15
0.145
0.16
0.155
0.165
0.16
0.15
0.155
0.145
0.135
0.125
0.105
0.12
0.11
0.115
0.125
0.13
0.135
0.14
0.14
0.13
0.125
0.1
0.105
0.095
0.095
0.085
0.09
0.09
0.09
0.1
0.085
0.08
0.065
0.045
0.02
0.02
0.015
0.0
0.0
-0.015
-0.015
-0.02
-0.03
-0.045
-0.075
-0.075
-0.105
-0.12
-0.115
-0.125
-0.125
-0.125
-0.115
-0.1
-0.1
-0.105
-0.09
-0.085
-0.08
-0.085
-0.065
-0.045
-0.01
0.015
0.04
0.07
0.085
0.115
0.12
0.14
0.155
0.155
0.18
0.195
0.215
0.24
0.26
0.275
0.28
0.285
0.285
0.28
0.28
0.28
0.28
0.285
0.29
0.295
0.3
0.31
0.3
0.3
0.31
0.29
0.285
0.28
0.27
0.28
0.29
0.3
0.3
0.315
0.31
0.31
0.31
0.29
0.295
0.28
0.285
0.275
0.285
0.285
0.29
0.29
0.29
0.285
0.29
0.28
0.275
0.265
0.27
0.27
0.275
0.285
0.32
0.335
0.36
0.375
0.39
0.405
0.405
0.42
0.415
0.43
0.46
0.495
0.52
0.575
0.6
0.62
0.615
0.6
0.55
0.545
0.52
0.52
0.535
0.545
0.54
0.55
0.52
0.495
0.46
0.415
0.395
0.35
0.335
0.32
0.315
0.305
0.295
0.285
0.265
0.255
0.235
0.225
0.21
0.225
0.22
0.235
0.245
0.245
0.255
0.25
0.245
0.235
0.23
0.24
0.24
0.275
0.34
0.445
0.605
0.785
0.965
1.155
1.31
1.46
1.61
1.74
1.85
1.925
1.96
1.94
1.875
1.8
1.645
1.445
1.18
0.92
0.675
0.5
0.355
0.27
0.225
0.22
0.215
0.195
0.18
0.15
0.105
0.065
0.05
0.045
0.04
0.04
0.04
0.03
0.03
0.04
0.03
0.035
0.02
0.025
0.015
0.015
0.01
0.0
0.0
-0.005
0.0
-0.005
-0.005
0.0
0.005
-0.005
-0.01
-0.01
-0.015
-0.025
-0.035
-0.04
-0.045
-0.04
-0.04
-0.04
-0.05
-0.055
-0.06
-0.075
-0.085
-0.105
-0.12
-0.12
-0.13
-0.15
-0.145
-0.16
-0.165
-0.18
-0.185
-0.205
-0.215
-0.23
-0.245
-0.25
-0.25
-0.26
-0.27
-0.255
-0.26
-0.27
-0.265
-0.265
-0.265
-0.265
-0.26
-0.235
-0.21
-0.19
-0.165
-0.135
-0.13
-0.095
-0.09
-0.065
-0.05
-0.03
-0.015
0.005
0.03
0.05
0.06
0.095
0.1
0.11
0.11
0.11
0.1
0.09
0.1
0.085
0.095
0.11
0.105
0.12
0.105
0.09
0.1
0.09
0.095
0.09
0.09
0.09
0.09
0.1
0.1
0.1
0.1
0.1
0.095
0.075
0.075
0.07
0.06
0.075
0.07
0.08
0.08
0.08
0.075
0.075
0.065
0.06
0.05
0.045
0.06
0.06
0.08
0.08
0.105
0.115
0.13
0.155
0.155
0.16
0.18
0.18
0.18
0.205
0.225
0.26
0.3
0.33
0.36
0.375
0.355
0.33
0.29
0.265
0.265
0.26
0.27
0.275
0.28
0.28
0.25
0.225
0.18
0.13
0.1
0.07
0.045
0.03
0.015
0.02
0.005
0.0
-0.015
-0.02
-0.03
-0.045
-0.055
-0.055
-0.055
-0.08
-0.06
-0.055
-0.05
-0.035
-0.035
-0.035
-0.05
-0.045
-0.03
0.02
0.095
0.22
0.395
0.585
0.795
0.985
1.155
1.32
1.465
1.57
1.655
1.665
1.62
1.535
1.395
1.19
0.92
0.635
0.375
0.17
0.025
-0.065
-0.11
-0.115
-0.115
-0.125
-0.16
-0.18
-0.21
-0.23
-0.25
-0.25
-0.25
-0.255
-0.27
-0.275
-0.285
-0.295
-0.3
-0.3
-0.295
-0.29
-0.3
-0.305
-0.305
-0.325
-0.325
-0.32
-0.33
-0.335
-0.34
-0.32
-0.325
-0.33
-0.33
-0.335
-0.34
-0.345
-0.365
-0.375
-0.39
-0.375
-0.39
-0.38
-0.39
-0.395
-0.41
-0.42
-0.425
-0.435
-0.46
-0.475
-0.48
-0.49
-0.5
-0.51
-0.515
-0.505
-0.52
-0.53
-0.54
-0.56
-0.575
-0.585
-0.59
-0.6
-0.595
-0.595
-0.595
-0.585
-0.58
-0.575
-0.57
-0.57
-0.565
-0.55
-0.54
-0.51
-0.485
-0.46
-0.445
-0.42
-0.4
-0.38
-0.365
-0.345
-0.325
-0.315
-0.315
-0.295
-0.275
-0.26
-0.255
-0.23
-0.235
-0.22
-0.225
-0.235
-0.23
-0.235
-0.23
-0.225
-0.22
-0.21
-0.2
-0.2
-0.19
-0.175
-0.17
-0.15
-0.125
-0.105
-0.075
-0.03
0.02
0.08
0.15
0.22
0.285
0.365
0.455
0.55
0.64
0.7
0.685
0.565
0.325
-0.055
-0.51
-0.965
-1.38
-1.68
-1.91
-2.05
-2.18
-2.275
-2.36
-2.405
-2.42
-2.4
-2.37
-2.32
-2.255
-2.16
-2.07
-1.965
-1.85
-1.75
-1.67
-1.59
-1.505
-1.445
-1.35
-1.25
-1.17
-1.07
-0.98
-0.905
-0.845
-0.805
-0.755
-0.715
-0.655
-0.575
-0.45
-0.32
-0.17
-0.04
0.065
0.14
0.17
0.165
0.15
0.14
0.14
0.14
0.16
0.17
0.195
0.21
0.225
0.235
0.235
0.25
0.25
0.28
0.3
0.32
0.34
0.37
0.38
0.4
0.41
0.425
0.42
0.44
0.455
0.48
0.5
0.53
0.545
0.575
0.605
0.63
0.645
0.655
0.665
0.685
0.68
0.69
0.7
0.725
0.725
0.75
0.735
0.735
0.705
0.69
0.67
0.63
0.61
0.58
0.545
0.525
0.5
0.47
0.44
0.385
0.34
0.295
0.265
0.225
0.185
0.145
0.11
0.085
0.055
0.035
0.025
-0.01
-0.04
-0.065
-0.1
-0.115
-0.14
-0.16
-0.17
-0.185
-0.2
-0.205
-0.2
-0.215
-0.23
-0.24
-0.25
-0.265
-0.265
-0.265
-0.265
-0.255
-0.275
-0.265
-0.255
-0.26
-0.255
-0.27
-0.28
-0.275
-0.285
-0.28
-0.28
-0.275
-0.27
-0.26
-0.27
-0.255
-0.26
-0.27
-0.3
-0.285
-0.29
-0.295
-0.3
-0.295
-0.285
-0.3
-0.305
-0.31
-0.32
-0.325
-0.32
-0.33
-0.33
-0.345
-0.345
-0.35
-0.345
-0.325
-0.34
-0.325
-0.335
-0.33
-0.335
-0.345
-0.345
-0.34
-0.34
-0.345
-0.34
-0.33
-0.33
-0.35
-0.36
-0.355
-0.345
-0.355
-0.36
-0.36
-0.36
-0.345
-0.355
-0.34
-0.355
-0.35
-0.355
-0.36
-0.375
-0.37
-0.375
-0.38
-0.37
-0.38
-0.365
-0.36
-0.36
-0.365
-0.365
-0.38
-0.385
-0.38
-0.385
-0.375
-0.38
-0.355
-0.345
-0.32
-0.315
-0.29
-0.275
-0.265
-0.245
-0.24
-0.225
-0.225
-0.21
-0.185
-0.165
-0.13
-0.1
-0.08
-0.065
-0.06
-0.075
-0.095
-0.12
-0.14
-0.135
-0.125
-0.1
-0.09
-0.1
-0.13
-0.16
-0.195
-0.235
-0.27
-0.29
-0.32
-0.33
-0.365
-0.355
-0.375
-0.38
-0.39
-0.41
-0.42
-0.435
-0.44
-0.435
-0.435
-0.43
-0.425
-0.41
-0.42
-0.415
-0.41
-0.41
-0.405
-0.395
-0.385
-0.335
-0.25
-0.115
0.06
0.26
0.47
0.665
0.84
1.005
1.145
1.28
1.365
1.39
1.365
1.285
1.15
0.945
0.685
0.4
0.12
-0.09
-0.225
-0.325
-0.395
-0.42
-0.425
-0.445
-0.48
-0.515
-0.53
-0.555
-0.57
-0.58
-0.595
-0.6
-0.605
-0.615
-0.63
-0.63
-0.625
-0.62
-0.615
-0.615
-0.635
-0.64
-0.645
-0.66
-0.665
-0.65
-0.66
-0.655
-0.645
-0.65
-0.65
-0.67
-0.66
-0.645
-0.66
-0.665
-0.675
-0.68
-0.7
-0.695
-0.69
-0.7
-0.68
-0.7
-0.71
-0.725
-0.75
-0.765
-0.775
-0.8
-0.82
-0.825
-0.845
-0.86
-0.86
-0.885
-0.9
-0.92
-0.935
-0.96
-0.975
-0.98
-1.0
-1.01
-1.0
-1.005
-1.0
-1.005
-1.0
-1.015
-1.015
-1.02
-1.015
-0.995
-0.975
-0.95
-0.91
-0.895
-0.86
-0.825
-0.795
-0.765
-0.745
-0.725
-0.705
-0.67
-0.64
-0.63
-0.575
-0.54
-0.505
-0.485
-0.475
-0.47
-0.47
-0.47
-0.455
-0.46
-0.455
-0.435
-0.43
-0.435
-0.415
-0.415
-0.405
-0.405
-0.42
-0.43
-0.43
-0.435
-0.43
-0.42
-0.4
-0.395
-0.395
-0.385
-0.39
-0.38
-0.39
-0.38
-0.36
-0.35
-0.34
-0.325
-0.3
-0.3
-0.27
-0.285
-0.245
-0.225
-0.21
-0.17
-0.11
-0.05
0.025
0.16
0.295
0.42
0.54
0.645
0.76
0.87
0.97
1.065
1.145
1.24
1.325
1.41
1.45
1.415
1.305
1.065
0.69
0.18
-0.35
-0.835
-1.225
-1.505
-1.63
-1.64
-1.585
-1.48
-1.365
-1.265
-1.185
-1.11
-1.035
-0.96
-0.875
-0.78
-0.685
-0.595
-0.545
-0.53
-0.53
-0.54
-0.55
-0.545
-0.54
-0.54
-0.525
-0.525
-0.515
-0.52
-0.52
-0.515
-0.51
-0.505
-0.495
-0.51
-0.515
-0.515
-0.515
-0.51
-0.51
-0.505
-0.505
-0.515
-0.505
-0.51
-0.505
-0.505
-0.51
-0.52
-0.515
-0.51
-0.505
-0.5
-0.495
-0.485
-0.485
-0.49
-0.49
-0.49
-0.5
-0.5
-0.5
-0.495
-0.48
-0.465
-0.45
-0.43
-0.41
-0.395
-0.385
-0.385
-0.37
-0.365
-0.35
-0.335
-0.325
-0.285
-0.265
-0.23
-0.22
-0.2
-0.19
-0.195
-0.19
-0.195
-0.2
-0.205
-0.21
-0.215
-0.21
-0.2
-0.21
-0.205
-0.22
-0.235
-0.24
-0.265
-0.285
-0.31
-0.315
-0.325
-0.33
-0.335
-0.335
-0.335
-0.345
-0.345
-0.355
-0.36
-0.37
-0.365
-0.36
-0.35
-0.355
-0.345
-0.345
-0.35
-0.345
-0.355
-0.36
-0.365
-0.36
-0.38
-0.37
-0.375
-0.37
-0.365
-0.355
-0.355
-0.34
-0.325
-0.335
-0.32
-0.325
-0.335
-0.335
-0.33
-0.325
-0.33
-0.315
-0.325
-0.315
-0.31
-0.31
-0.315
-0.325
-0.335
-0.345
-0.34
-0.335
-0.345
-0.33
-0.31
-0.325
-0.31
-0.315
-0.33
-0.34
-0.35
-0.345
-0.34
-0.325
-0.32
-0.305
-0.305
-0.31
-0.315
-0.32
-0.33
-0.33
-0.33
-0.33
-0.32
-0.315
-0.315
-0.31
-0.3
-0.3
-0.305
-0.32
-0.325
-0.335
-0.335
-0.325
-0.325
-0.31
-0.29
-0.28
-0.285
-0.275
-0.265
-0.26
-0.255
-0.245
-0.225
-0.21
-0.2
-0.185
-0.175
-0.15
-0.15
-0.13
-0.095
-0.065
-0.045
-0.005
0.02
0.025
0.0
-0.015
-0.02
-0.01
0.0
-0.005
0.005
-0.005
-0.025
-0.06
-0.1
-0.145
-0.185
-0.215
-0.235
-0.225
-0.25
-0.26
-0.28
-0.3
-0.32
-0.33
-0.34
-0.33
-0.32
-0.31
-0.305
-0.285
-0.29
-0.285
-0.29
-0.295
-0.3
-0.305
-0.315
-0.285
-0.255
-0.17
-0.055
0.125
0.325
0.53
0.74
0.925
1.09
1.24
1.385
1.495
1.56
1.57
1.52
1.415
1.215
0.94
0.61
0.285
0.02
-0.15
-0.235
-0.29
-0.29
-0.29
-0.3
-0.32
-0.37
-0.4
-0.44
-0.475
-0.49
-0.495
-0.48
-0.48
-0.485
-0.49
-0.505
-0.505
-0.5
-0.505
-0.505
-0.515
-0.525
-0.515
-0.505
-0.5
-0.495
-0.485
-0.495
-0.495
-0.505
-0.525
-0.53
-0.54
-0.55
-0.55
-0.555
-0.555
-0.545
-0.54
-0.545
-0.545
-0.53
-0.535
-0.55
-0.57
-0.585
-0.625
-0.64
-0.66
-0.655
-0.665
-0.66
-0.65
-0.655
-0.69
-0.695
-0.72
-0.75
-0.765
-0.785
-0.8
-0.8
-0.815
-0.825
-0.815
-0.82
-0.82
-0.84
-0.855
-0.855
-0.86
-0.865
-0.865
-0.835
-0.83
-0.82
-0.8
-0.79
-0.77
-0.745
-0.735
-0.71
-0.68
-0.675
-0.635
-0.605
-0.57
-0.53
-0.495
-0.475
-0.46
-0.43
-0.425
-0.405
-0.39
-0.37
-0.355
-0.34
-0.325
-0.32
-0.3
-0.31
-0.315
-0.31
-0.315
-0.32
-0.32
-0.325
-0.33
-0.33
-0.32
-0.34
-0.33
-0.325
-0.325
-0.325
-0.33
-0.315
-0.325
-0.305
-0.305
-0.31
-0.3
-0.3
-0.285
-0.29
-0.31
-0.3
-0.32
-0.315
-0.33
-0.325
-0.32
-0.33
-0.325
-0.315
-0.315
-0.3
-0.29
-0.29
-0.305
-0.3
-0.3
-0.29
-0.275
-0.26
-0.235
-0.22
-0.195
-0.185
-0.185
-0.18
-0.165
-0.175
-0.135
-0.12
-0.075
-0.035
-0.005
0.015
0.025
0.0
-0.025
-0.035
-0.055
-0.06
-0.055
-0.055
-0.055
-0.065
-0.08
-0.095
-0.12
-0.15
-0.18
-0.2
-0.235
-0.265
-0.285
-0.295
-0.305
-0.32
-0.32
-0.345
-0.34
-0.335
-0.33
-0.335
-0.345
-0.35
-0.35
-0.355
-0.345
-0.335
-0.325
-0.315
-0.29
-0.29
-0.265
-0.21
-0.125
0.025
0.23
0.435
0.665
0.875
1.045
1.225
1.36
1.47
1.52
1.515
1.445
1.29
1.04
0.715
0.375
0.045
-0.155
-0.295
-0.34
-0.345
-0.33
-0.33
-0.345
-0.385
-0.435
-0.47
-0.49
-0.495
-0.49
-0.48
-0.485
-0.485
-0.49
-0.495
-0.5
-0.495
-0.5
-0.505
-0.495
-0.5
-0.495
-0.495
-0.495
-0.5
-0.505
-0.51
-0.525
-0.535
-0.54
-0.54
-0.54
-0.54
-0.535
-0.525
-0.52
-0.515
-0.53
-0.53
-0.55
-0.555
-0.565
-0.57
-0.57
-0.58
-0.585
-0.585
-0.595
-0.6
-0.625
-0.635
-0.66
-0.68
-0.7
-0.71
-0.715
-0.72
-0.725
-0.73
-0.725
-0.73
-0.735
-0.74
-0.75
-0.755
-0.75
-0.72
-0.69
-0.645
-0.595
-0.54
-0.495
-0.46
-0.425
-0.395
-0.365
-0.315
-0.295
-0.27
-0.235
-0.21
-0.195
-0.185
-0.175
-0.185
-0.22
-0.245
-0.285
-0.305
-0.32
-0.335
-0.345
-0.355
-0.36
-0.375
-0.385
-0.39
-0.4
-0.415
-0.425
-0.43
-0.415
-0.42
-0.42
-0.425
-0.415
-0.41
-0.41
-0.42
-0.405
-0.405
-0.405
-0.405
-0.41
-0.415
-0.41
-0.415
-0.405
-0.39
-0.36
-0.325
-0.265
-0.16
-0.02
0.16
0.355
0.525
0.68
0.81
0.925
1.045
1.15
1.225
1.28
1.31
1.295
1.19
1.0
0.675
0.32
-0.025
-0.285
-0.435
-0.46
-0.455
-0.415
-0.39
-0.38
-0.395
-0.44
-0.49
-0.52
-0.53
-0.525
-0.525
-0.515
-0.505
-0.515
-0.515
-0.525
-0.525
-0.535
-0.525
-0.535
-0.53
-0.54
-0.535
-0.53
-0.53
-0.525
-0.54
-0.555
-0.55
-0.565
-0.58
-0.565
-0.575
-0.575
-0.565
-0.57
-0.565
-0.575
-0.575
-0.58
-0.595
-0.61
-0.64
-0.63
-0.635
-0.64
-0.64
-0.63
-0.64
-0.645
-0.665
-0.68
-0.69
-0.71
-0.73
-0.735
-0.745
-0.755
-0.75
-0.745
-0.745
-0.76
-0.75
-0.76
-0.77
-0.775
-0.775
-0.765
-0.76
-0.74
-0.72
-0.695
-0.68
-0.66
-0.625
-0.62
-0.605
-0.585
-0.565
-0.54
-0.525
-0.505
-0.47
-0.44
-0.43
-0.415
-0.4
-0.39
-0.39
-0.385
-0.385
-0.38
-0.385
-0.365
-0.36
-0.37
-0.36
-0.36
-0.365
-0.37
-0.37
-0.39
-0.4
-0.39
-0.375
-0.37
-0.375
-0.35
-0.35
-0.37
-0.365
-0.375
-0.375
-0.38
-0.375
-0.385
-0.39
-0.385
-0.38
-0.365
-0.36
-0.36
-0.365
-0.365
-0.365
-0.37
-0.38
-0.37
-0.375
-0.375
-0.37
-0.36
-0.36
-0.37
-0.36
-0.36
-0.37
-0.365
-0.36
-0.36
-0.34
-0.325
-0.31
-0.3
-0.28
-0.24
-0.205
-0.16
-0.13
-0.065
0.0
0.065
0.145
0.245
0.35
0.455
0.56
0.615
0.61
0.52
0.32
0.005
-0.4
-0.855
-1.29
-1.625
-1.89
-2.1
-2.265
-2.43
-2.55
-2.62
-2.65
-2.645
-2.61
-2.54
-2.45
-2.33
-2.22
-2.07
-1.925
-1.8
-1.685
-1.62
-1.58
-1.51
-1.44
-1.335
-1.235
-1.145
-1.085
-1.02
-0.99
-0.95
-0.89
-0.815
-0.715
-0.595
-0.445
-0.295
-0.18
-0.075
-0.01
0.02
0.01
0.01
0.005
-0.005
0.0
0.01
0.02
0.045
0.06
0.075
0.1
0.12
0.14
0.15
0.17
0.175
0.18
0.18
0.2
0.215
0.23
0.24
0.28
0.315
0.335
0.35
0.365
0.385
0.41
0.43
0.45
0.48
0.5
0.55
0.57
0.61
0.635
0.66
0.675
0.69
0.695
0.695
0.7
0.7
0.7
0.71
0.71
0.725
0.7
0.675
0.655
0.63
0.6
0.57
0.535
0.495
0.47
0.445
0.41
0.395
0.36
0.31
0.28
0.22
0.195
0.16
0.13
0.095
0.07
0.04
0.015
-0.01
-0.035
-0.055
-0.08
-0.105
-0.13
-0.15
-0.17
-0.19
-0.185
-0.19
-0.195
-0.2
-0.195
-0.2
-0.205
-0.23
-0.22
-0.23
-0.23
-0.24
-0.23
-0.225
-0.225
-0.22
-0.22
-0.225
-0.225
-0.23
-0.225
-0.235
-0.245
-0.245
-0.25
-0.24
-0.24
-0.235
-0.23
-0.23
-0.235
-0.24
-0.26
-0.255
-0.265
-0.27
-0.27
-0.27
-0.27
-0.245
-0.26
-0.265
-0.26
-0.285
-0.29
-0.295
-0.295
-0.305
-0.305
-0.305
-0.305
-0.295
-0.295
-0.3
-0.3
-0.31
-0.31
-0.315
-0.315
-0.32
-0.33
-0.315
-0.32
-0.325
-0.31
-0.31
-0.295
-0.295
-0.32
-0.32
-0.32
-0.325
-0.325
-0.32
-0.315
-0.32
-0.31
-0.315
-0.31
-0.315
-0.315
-0.325
-0.34
-0.32
-0.34
-0.34
-0.315
-0.305
-0.315
-0.32
-0.315
-0.32
-0.325
-0.325
-0.325
-0.31
-0.32
-0.305
-0.295
-0.275
-0.275
-0.25
-0.245
-0.225
-0.225
-0.205
-0.205
-0.18
-0.165
-0.155
-0.145
-0.12
-0.09
-0.08
-0.03
-0.015
0.015
0.015
0.005
-0.01
-0.04
-0.06
-0.06
-0.04
-0.035
-0.035
-0.025
-0.05
-0.07
-0.115
-0.15
-0.18
-0.205
-0.215
-0.235
-0.24
-0.25
-0.265
-0.28
-0.3
-0.325
-0.34
-0.345
-0.355
-0.355
-0.345
-0.33
-0.32
-0.315
-0.31
-0.31
-0.315
-0.315
-0.305
-0.29
-0.215
-0.1
0.06
0.27
0.485
0.69
0.88
1.055
1.21
1.34
1.435
1.475
1.47
1.395
1.26
1.025
0.73
0.395
0.11
-0.09
-0.235
-0.3
-0.325
-0.34
-0.345
-0.375
-0.41
-0.43
-0.46
-0.485
-0.495
-0.49
-0.5
-0.5
-0.515
-0.52
-0.525
-0.53
-0.515
-0.53
-0.52
-0.525
-0.52
-0.535
-0.535
-0.54
-0.555
-0.57
-0.565
-0.56
-0.55
-0.545
-0.545
-0.54
-0.55
-0.56
-0.565
-0.58
-0.58
-0.585
-0.58
-0.585
-0.59
-0.605
-0.61
-0.61
-0.62
-0.63
-0.66
-0.68
-0.705
-0.725
-0.735
-0.745
-0.755
-0.77
-0.78
-0.79
-0.825
-0.84
-0.845
-0.86
-0.88
-0.9
-0.915
-0.93
-0.925
-0.915
-0.91
-0.895
-0.9
-0.91
-0.89
-0.89
-0.88
-0.86
-0.845
-0.82
-0.785
-0.75
-0.71
-0.68
-0.645
-0.605
-0.575
-0.545
-0.52
-0.5
-0.47
-0.445
-0.415
-0.39
-0.355
-0.335
-0.335
-0.315
-0.305
-0.3
-0.31
-0.32
-0.32
-0.32
-0.31
-0.295
-0.29
-0.28
-0.285
-0.295
-0.295
-0.275
-0.285
-0.295
-0.285
-0.285
-0.29
-0.27
-0.265
-0.265
-0.26
-0.27
-0.275
-0.275
-0.285
-0.285
-0.305
-0.29
-0.285
-0.28
-0.27
-0.27
-0.275
-0.265
-0.255
-0.24
-0.24
-0.215
-0.205
-0.185
-0.16
-0.14
-0.115
-0.11
-0.11
-0.105
-0.085
-0.065
-0.045
-0.015
0.005
0.025
0.035
0.025
-0.01
-0.01
-0.01
-0.025
-0.025
-0.02
-0.01
-0.035
-0.06
-0.075
-0.1
-0.125
-0.155
-0.175
-0.195
-0.215
-0.23
-0.26
-0.27
-0.295
-0.305
-0.31
-0.325
-0.315
-0.3
-0.3
-0.295
-0.3
-0.29
-0.295
-0.295
-0.305
-0.3
-0.3
-0.29
-0.265
-0.21
-0.135
-0.02
0.14
0.32
0.515
0.69
0.85
1.01
1.155
1.29
1.405
1.455
1.46
1.4
1.305
1.135
0.9
0.61
0.31
0.07
-0.11
-0.225
-0.285
-0.29
-0.285
-0.295
-0.315
-0.36
-0.395
-0.425
-0.46
-0.455
-0.455
-0.44
-0.435
-0.43
-0.425
-0.44
-0.445
-0.46
-0.46
-0.475
-0.47
-0.47
-0.465
-0.465
-0.46
-0.465
-0.46
-0.47
-0.465
-0.47
-0.495
-0.495
-0.49
-0.505
-0.5
-0.485
-0.49
-0.485
-0.485
-0.49
-0.495
-0.51
-0.51
-0.535
-0.535
-0.55
-0.56
-0.555
-0.56
-0.565
-0.575
-0.595
-0.615
-0.625
-0.635
-0.65
-0.655
-0.675
-0.675
-0.67
-0.675
-0.665
-0.675
-0.675
-0.68
-0.685
-0.68
-0.68
-0.67
-0.655
-0.65
-0.63
-0.61
-0.585
-0.56
-0.535
-0.505
-0.49
-0.49
-0.475
-0.455
-0.43
-0.415
-0.39
-0.375
-0.33
-0.32
-0.315
-0.32
-0.305
-0.305
-0.32
-0.32
-0.305
-0.305
-0.285
-0.285
-0.265
-0.27
-0.28
-0.275
-0.285
-0.29
-0.295
-0.29
-0.3
-0.3
-0.29
-0.29
-0.285
-0.285
-0.285
-0.275
-0.285
-0.3
-0.295
-0.31
-0.305
-0.295
-0.295
-0.295
-0.29
-0.295
-0.3
-0.29
-0.295
-0.295
-0.31
-0.315
-0.315
-0.31
-0.3
-0.29
-0.275
-0.26
-0.25
-0.23
-0.215
-0.2
-0.185
-0.175
-0.155
-0.15
-0.13
-0.11
-0.08
-0.05
-0.015
0.015
0.035
0.04
0.03
0.01
-0.005
-0.025
-0.03
-0.02
-0.01
-0.005
-0.025
-0.03
-0.06
-0.095
-0.135
-0.165
-0.19
-0.215
-0.215
-0.225
-0.24
-0.25
-0.275
-0.3
-0.29
-0.31
-0.32
-0.32
-0.325
-0.31
-0.3
-0.285
-0.285
-0.285
-0.275
-0.275
-0.28
-0.275
-0.27
-0.245
-0.19
-0.095
0.05
0.225
0.42
0.625
0.805
0.97
1.12
1.25
1.36
1.42
1.44
1.41
1.345
1.215
1.03
0.765
0.485
0.225
0.015
-0.13
-0.22
-0.285
-0.285
-0.295
-0.3
-0.32
-0.345
-0.39
-0.42
-0.435
-0.445
-0.45
-0.465
-0.465
-0.45
-0.45
-0.455
-0.45
-0.46
-0.455
-0.46
-0.475
-0.48
-0.475
-0.49
-0.475
-0.485
-0.485
-0.48
-0.48
-0.47
-0.465
-0.475
-0.48
-0.495
-0.51
-0.515
-0.51
-0.51
-0.505
-0.51
-0.495
-0.5
-0.5
-0.52
-0.53
-0.535
-0.55
-0.57
-0.58
-0.59
-0.59
-0.6
-0.605
-0.62
-0.625
-0.64
-0.66
-0.68
-0.695
-0.695
-0.715
-0.72
-0.72
-0.72
-0.73
-0.725
-0.73
-0.735
-0.715
-0.715
-0.72
-0.715
-0.71
-0.69
-0.67
-0.64
-0.62
-0.59
-0.57
-0.55
-0.53
-0.5
-0.48
-0.47
-0.46
-0.415
-0.415
-0.375
-0.35
-0.33
-0.31
-0.31
-0.29
-0.285
-0.295
-0.29
-0.295
-0.285
-0.29
-0.28
-0.275
-0.265
-0.26
-0.26
-0.265
-0.27
-0.285
-0.285
-0.295
-0.285
-0.28
-0.275
-0.27
-0.26
-0.255
-0.255
-0.265
-0.27
-0.26
-0.27
-0.275
-0.27
-0.27
-0.265
-0.265
-0.255
-0.26
-0.26
-0.26
-0.26
-0.265
-0.28
-0.285
-0.295
-0.28
-0.265
-0.25
-0.23
-0.225
-0.22
-0.2
-0.185
-0.17
-0.16
-0.14
-0.13
-0.115
-0.1
-0.09
-0.05
-0.025
0.015
0.05
0.07
0.05
0.025
0.005
-0.02
-0.03
-0.015
-0.01
0.01
0.01
-0.015
-0.03
-0.065
-0.1
-0.125
-0.165
-0.185
-0.2
-0.21
-0.215
-0.225
-0.255
-0.27
-0.275
-0.29
-0.305
-0.31
-0.32
-0.305
-0.3
-0.3
-0.29
-0.27
-0.275
-0.275
-0.28
-0.295
-0.27
-0.265
-0.235
-0.155
-0.05
0.11
0.3
0.505
0.695
0.85
1.02
1.155
1.29
1.38
1.44
1.45
1.405
1.335
1.195
0.985
0.725
0.445
0.19
-0.02
-0.155
-0.24
-0.275
-0.28
-0.29
-0.295
-0.31
-0.345
-0.385
-0.415
-0.42
-0.44
-0.455
-0.45
-0.45
-0.445
-0.44
-0.44
-0.43
-0.43
-0.43
-0.44
-0.43
-0.445
-0.455
-0.45
-0.455
-0.46
-0.45
-0.45
-0.45
-0.45
-0.445
-0.45
-0.45
-0.465
-0.475
-0.485
-0.505
-0.505
-0.505
-0.505
-0.5
-0.485
-0.5
-0.515
-0.525
-0.53
-0.545
-0.55
-0.56
-0.59
-0.575
-0.58
-0.59
-0.595
-0.6
-0.615
-0.635
-0.645
-0.655
-0.67
-0.695
-0.695
-0.695
-0.685
-0.685
-0.685
-0.665
-0.655
-0.655
-0.65
-0.635
-0.62
-0.585
-0.58
-0.55
-0.525
-0.495
-0.46
-0.44
-0.41
-0.385
-0.365
-0.355
-0.34
-0.335
-0.31
-0.3
-0.285
-0.275
-0.26
-0.26
-0.245
-0.245
-0.25
-0.255
-0.26
-0.265
-0.27
-0.275
-0.265
-0.25
-0.245
-0.235
-0.24
-0.25
-0.245
-0.245
-0.25
-0.25
-0.25
-0.25
-0.25
-0.25
-0.245
-0.245
-0.245
-0.24
-0.25
-0.245
-0.265
-0.265
-0.26
-0.27
-0.26
-0.26
-0.25
-0.245
-0.245
-0.235
-0.24
-0.225
-0.225
-0.22
-0.205
-0.19
-0.175
-0.145
-0.125
-0.11
-0.09
-0.09
-0.09
-0.06
-0.04
-0.025
0.005
0.04
0.055
0.075
0.065
0.045
0.025
0.01
0.0
0.015
0.0
-0.005
0.01
-0.01
-0.035
-0.085
-0.11
-0.135
-0.16
-0.17
-0.195
-0.215
-0.23
-0.255
-0.265
-0.27
-0.27
-0.28
-0.27
-0.27
-0.275
-0.265
-0.28
-0.29
-0.29
-0.29
-0.28
-0.27
-0.26
-0.25
-0.245
-0.225
-0.17
-0.1
0.015
0.155
0.335
0.53
0.705
0.85
1.005
1.14
1.285
1.385
1.455
1.47
1.43
1.345
1.2
0.99
0.725
0.44
0.195
0.005
-0.13
-0.215
-0.25
-0.27
-0.275
-0.3
-0.34
-0.38
-0.41
-0.42
-0.435
-0.43
-0.43
-0.41
-0.425
-0.425
-0.435
-0.445
-0.46
-0.47
-0.475
-0.47
-0.465
-0.47
-0.46
-0.45
-0.455
-0.445
-0.455
-0.465
-0.475
-0.485
-0.49
-0.485
-0.49
-0.495
-0.49
-0.48
-0.475
-0.485
-0.485
-0.515
-0.515
-0.52
-0.535
-0.53
-0.53
-0.545
-0.55
-0.56
-0.57
-0.575
-0.595
-0.615
-0.625
-0.64
-0.65
-0.665
-0.665
-0.675
-0.69
-0.69
-0.705
-0.71
-0.725
-0.73
-0.74
-0.74
-0.745
-0.73
-0.725
-0.71
-0.69
-0.66
-0.65
-0.625
-0.61
-0.595
-0.58
-0.555
-0.535
-0.505
-0.48
-0.455
-0.42
-0.4
-0.375
-0.35
-0.34
-0.325
-0.315
-0.325
-0.315
-0.32
-0.305
-0.295
-0.285
-0.28
-0.29
-0.295
-0.31
-0.295
-0.29
-0.29
-0.29
-0.29
-0.285
-0.28
-0.275
-0.265
-0.27
-0.27
-0.275
-0.27
-0.275
-0.28
-0.285
-0.28
-0.28
-0.285
-0.28
-0.275
-0.28
-0.27
-0.27
-0.28
-0.285
-0.29
-0.295
-0.29
-0.29
-0.265
-0.25
-0.245
-0.24
-0.215
-0.21
-0.195
-0.175
-0.15
-0.14
-0.12
-0.12
-0.09
-0.065
-0.035
-0.005
0.025
0.05
0.05
0.04
0.005
-0.015
-0.03
-0.02
-0.02
-0.005
0.005
-0.01
-0.035
-0.06
-0.105
-0.14
-0.17
-0.2
-0.215
-0.215
-0.245
-0.25
-0.25
-0.28
-0.29
-0.315
-0.32
-0.32
-0.32
-0.31
-0.315
-0.295
-0.29
-0.3
-0.295
-0.285
-0.28
-0.28
-0.285
-0.275
-0.25
-0.195
-0.11
0.035
0.21
0.42
0.605
0.78
0.94
1.1
1.235
1.34
1.415
1.415
1.375
1.285
1.145
0.945
0.68
0.405
0.165
-0.035
-0.175
-0.275
-0.305
-0.32
-0.32
-0.325
-0.345
-0.365
-0.4
-0.42
-0.44
-0.45
-0.455
-0.46
-0.46
-0.46
-0.465
-0.47
-0.465
-0.48
-0.465
-0.48
-0.47
-0.47
-0.495
-0.485
-0.485
-0.495
-0.5
-0.49
-0.485
-0.48
-0.47
-0.475
-0.485
-0.485
-0.495
-0.5
-0.52
-0.51
-0.53
-0.53
-0.515
-0.52
-0.525
-0.54
-0.545
-0.555
-0.575
-0.6
-0.6
-0.62
-0.62
-0.625
-0.635
-0.64
-0.64
-0.65
-0.67
-0.685
-0.69
-0.705
-0.72
-0.725
-0.715
-0.725
-0.72
-0.71
-0.695
-0.685
-0.68
-0.67
-0.665
-0.65
-0.635
-0.61
-0.585
-0.55
-0.515
-0.505
-0.47
-0.445
-0.415
-0.415
-0.385
-0.38
-0.355
-0.345
-0.335
-0.325
-0.31
-0.305
-0.285
-0.28
-0.28
-0.285
-0.29
-0.3
-0.295
-0.3
-0.28
-0.3
-0.295
-0.29
-0.275
-0.265
-0.27
-0.265
-0.28
-0.29
-0.29
-0.285
-0.29
-0.28
-0.28
-0.26
-0.265
-0.275
-0.26
-0.275
-0.27
-0.275
-0.29
-0.29
-0.29
-0.29
-0.29
-0.28
-0.275
-0.275
-0.27
-0.27
-0.265
-0.275
-0.27
-0.245
-0.225
-0.205
-0.18
-0.15
-0.12
-0.125
-0.115
-0.095
-0.08
-0.065
-0.045
-0.01
0.015
0.04
0.055
0.045
0.035
0.015
-0.005
-0.015
-0.01
-0.015
-0.005
-0.025
-0.03
-0.055
-0.085
-0.105
-0.135
-0.17
-0.19
-0.215
-0.23
-0.25
-0.27
-0.29
-0.29
-0.3
-0.305
-0.3
-0.3
-0.305
-0.3
-0.3
-0.305
-0.305
-0.315
-0.305
-0.295
-0.29
-0.28
-0.27
-0.22
-0.15
-0.035
0.115
0.295
0.485
0.66
0.835
0.995
1.15
1.29
1.405
1.47
1.47
1.435
1.335
1.18
0.975
0.69
0.41
0.15
-0.045
-0.185
-0.25
-0.29
-0.3
-0.31
-0.34
-0.37
-0.415
-0.45
-0.455
-0.47
-0.465
-0.465
-0.455
-0.445
-0.45
-0.455
-0.47
-0.48
-0.49
-0.5
-0.51
-0.5
-0.5
-0.485
-0.495
-0.485
-0.495
-0.5
-0.5
-0.505
-0.515
-0.51
-0.52
-0.52
-0.51
-0.515
-0.51
-0.515
-0.52
-0.52
-0.53
-0.54
-0.555
-0.565
-0.57
-0.585
-0.59
-0.59
-0.595
-0.61
-0.615
-0.64
-0.655
-0.68
-0.69
-0.71
-0.725
-0.72
-0.73
-0.725
-0.725
-0.72
-0.73
-0.73
-0.725
-0.73
-0.73
-0.73
-0.715
-0.7
-0.67
-0.64
-0.615
-0.6
-0.56
-0.535
-0.525
-0.505
-0.485
-0.47
-0.445
-0.425
-0.405
-0.38
-0.355
-0.32
-0.315
-0.285
-0.275
-0.27
-0.26
-0.26
-0.24
-0.23
-0.21
-0.195
-0.175
-0.155
-0.15
-0.145
-0.14
-0.13
-0.12
-0.115
-0.12
-0.125
-0.13
-0.145
-0.14
-0.145
-0.155
-0.15
-0.145
-0.145
-0.15
-0.17
-0.195
-0.215
-0.23
-0.235
-0.245
-0.24
-0.265
-0.26
-0.28
-0.295
-0.31
-0.315
-0.32
-0.315
-0.305
-0.29
-0.29
-0.265
-0.27
-0.28
-0.285
-0.265
-0.285
-0.275
-0.275
-0.25
-0.2
-0.135
-0.015
0.125
0.285
0.46
0.645
0.82
0.985
1.17
1.33
1.48
1.58
1.61
1.57
1.465
1.305
1.035
0.71
0.41
0.145
-0.06
-0.185
-0.24
-0.245
-0.26
-0.255
-0.275
-0.31
-0.35
-0.385
-0.405
-0.41
-0.425
-0.415
-0.42
-0.42
-0.42
-0.425
-0.42
-0.43
-0.425
-0.445
-0.45
-0.45
-0.45
-0.455
-0.435
-0.44
-0.44
-0.435
-0.43
-0.44
-0.44
-0.455
-0.47
-0.485
-0.485
-0.485
-0.485
-0.48
-0.475
-0.48
-0.49
-0.51
-0.52
-0.54
-0.555
-0.57
-0.59
-0.595
-0.59
-0.585
-0.595
-0.595
-0.6
-0.625
-0.635
-0.665
-0.67
-0.675
-0.695
-0.705
-0.715
-0.715
-0.715
-0.715
-0.71
-0.715
-0.705
-0.71
-0.695
-0.675
-0.66
-0.645
-0.63
-0.605
-0.57
-0.55
-0.52
-0.505
-0.485
-0.465
-0.44
-0.415
-0.41
-0.395
-0.375
-0.36
-0.325
-0.295
-0.28
-0.27
-0.275
-0.27
-0.275
-0.28
-0.29
-0.295
-0.31
-0.3
-0.3
-0.29
-0.28
-0.29
-0.275
-0.29
-0.29
-0.3
-0.3
-0.285
-0.29
-0.295
-0.295
-0.285
-0.28
-0.28
-0.28
-0.275
-0.29
-0.29
-0.285
-0.285
-0.3
-0.275
-0.28
-0.28
-0.26
-0.265
-0.255
-0.28
-0.305
-0.305
-0.305
-0.315
-0.305
-0.295
-0.295
-0.28
-0.265
-0.28
-0.275
-0.26
-0.265
-0.265
-0.275
-0.275
-0.28
-0.28
-0.26
-0.245
-0.24
-0.24
-0.245
-0.23
-0.235
-0.24
-0.255
-0.245
-0.24
-0.24
-0.215
-0.2
-0.165
-0.155
-0.145
-0.125
-0.115
-0.11
-0.1
-0.085
-0.07
-0.06
-0.03
-0.005
0.025
0.045
0.05
0.055
0.035
0.015
-0.02
-0.025
-0.035
-0.025
-0.015
0.0
0.01
-0.005
-0.025
-0.055
-0.085
-0.12
-0.15
-0.175
-0.185
-0.2
-0.19
-0.195
-0.2
-0.21
-0.235
-0.25
-0.26
-0.27
-0.265
-0.26
-0.245
-0.245
-0.22
-0.215
-0.21
-0.205
-0.2
-0.205
-0.165
-0.105
0.025
0.21
0.395
0.6
0.815
0.995
1.175
1.335
1.475
1.58
1.605
1.585
1.495
1.345
1.12
0.835
0.53
0.25
0.055
-0.09
-0.16
-0.2
-0.205
-0.22
-0.245
-0.27
-0.31
-0.355
-0.385
-0.4
-0.39
-0.405
-0.405
-0.405
-0.42
-0.425
-0.44
-0.435
-0.44
-0.44
-0.43
-0.425
-0.43
-0.435
-0.445
-0.45
-0.455
-0.465
-0.47
-0.47
-0.47
-0.46
-0.46
-0.45
-0.45
-0.45
-0.455
-0.455
-0.475
-0.475
-0.485
-0.505
-0.51
-0.515
-0.505
-0.505
-0.51
-0.505
-0.525
-0.54
-0.55
-0.565
-0.585
-0.605
-0.615
-0.625
-0.63
-0.63
-0.65
-0.655
-0.665
-0.69
-0.695
-0.71
-0.715
-0.72
-0.73
-0.73
-0.735
-0.725
-0.72
-0.715
-0.715
-0.705
-0.705
-0.7
-0.7
-0.675
-0.665
-0.64
-0.605
-0.58
-0.545
-0.505
-0.49
-0.48
-0.46
-0.425
-0.415
-0.41
-0.39
-0.37
-0.33
-0.3
-0.265
-0.26
-0.245
-0.245
-0.245
-0.245
-0.26
-0.26
-0.25
-0.24
-0.235
-0.23
-0.225
-0.235
-0.24
-0.245
-0.25
-0.245
-0.25
-0.26
-0.235
-0.225
-0.22
-0.205
-0.205
-0.195
-0.2
-0.205
-0.22
-0.235
-0.25
-0.24
-0.245
-0.24
-0.24
-0.23
-0.23
-0.22
-0.21
-0.22
-0.22
-0.225
-0.215
-0.21
-0.2
-0.175
-0.165
-0.14
-0.115
-0.1
-0.095
-0.08
-0.085
-0.085
-0.07
-0.06
-0.04
-0.015
0.02
0.05
0.065
0.09
0.08
0.055
0.025
0.015
0.01
0.03
0.04
0.055
0.065
0.04
0.02
-0.015
-0.05
-0.09
-0.125
-0.16
-0.195
-0.21
-0.205
-0.215
-0.225
-0.22
-0.23
-0.235
-0.25
-0.255
-0.26
-0.265
-0.275
-0.265
-0.25
-0.23
-0.23
-0.225
-0.22
-0.235
-0.235
-0.2
-0.145
-0.04
0.11
0.32
0.54
0.755
0.965
1.145
1.32
1.465
1.565
1.63
1.62
1.565
1.45
1.255
0.96
0.63
0.31
0.045
-0.125
-0.205
-0.26
-0.26
-0.265
-0.28
-0.315
-0.325
-0.365
-0.39
-0.415
-0.405
-0.415
-0.405
-0.405
-0.43
-0.435
-0.435
-0.45
-0.455
-0.445
-0.43
-0.425
-0.425
-0.415
-0.415
-0.435
-0.46
-0.465
-0.48
-0.475
-0.47
-0.47
-0.45
-0.435
-0.43
-0.425
-0.435
-0.45
-0.475
-0.475
-0.48
-0.51
-0.505
-0.51
-0.515
-0.52
-0.52
-0.525
-0.54
-0.55
-0.575
-0.59
-0.615
-0.62
-0.625
-0.63
-0.645
-0.65
-0.64
-0.65
-0.655
-0.67
-0.68
-0.7
-0.71
-0.715
-0.72
-0.72
-0.715
-0.71
-0.69
-0.675
-0.675
-0.655
-0.64
-0.615
-0.595
-0.585
-0.555
-0.545
-0.505
-0.485
-0.465
-0.445
-0.42
-0.41
-0.385
-0.375
-0.365
-0.345
-0.33
-0.315
-0.3
-0.275
-0.27
-0.26
-0.26
-0.25
-0.26
-0.26
-0.265
-0.27
-0.26
-0.25
-0.235
-0.23
-0.205
-0.19
-0.175
-0.15
-0.12
-0.07
-0.025
0.03
0.095
0.17
0.23
0.32
0.41
0.52
0.625
0.725
0.765
0.755
0.635
0.42
0.095
-0.325
-0.75
-1.15
-1.475
-1.715
-1.925
-2.07
-2.22
-2.325
-2.395
-2.44
-2.445
-2.425
-2.365
-2.295
-2.21
-2.1
-1.98
-1.855
-1.745
-1.645
-1.575
-1.51
-1.445
-1.36
-1.25
-1.12
-0.99
-0.885
-0.82
-0.78
-0.765
-0.725
-0.68
-0.585
-0.485
-0.35
-0.21
-0.075
0.02
0.11
0.14
0.165
0.155
0.15
0.14
0.14
0.15
0.17
0.175
0.195
0.22
0.245
0.265
0.275
0.29
0.285
0.29
0.29
0.285
0.315
0.345
0.37
0.39
0.415
0.44
0.46
0.475
0.47
0.485
0.495
0.52
0.54
0.555
0.595
0.63
0.655
0.675
0.695
0.71
0.715
0.735
0.755
0.765
0.78
0.79
0.79
0.81
0.81
0.805
0.795
0.78
0.755
0.735
0.7
0.67
0.645
0.615
0.585
0.555
0.525
0.495
0.46
0.415
0.385
0.35
0.3
0.28
0.245
0.205
0.19
0.16
0.13
0.105
0.075
0.055
0.01
-0.02
-0.03
-0.05
-0.065
-0.08
-0.095
-0.1
-0.105
-0.115
-0.125
-0.14
-0.155
-0.16
-0.165
-0.165
-0.165
-0.16
-0.17
-0.165
-0.17
-0.175
-0.17
-0.165
-0.165
-0.17
-0.185
-0.17
-0.18
-0.175
-0.18
-0.165
-0.17
-0.18
-0.18
-0.175
-0.18
-0.195
-0.2
-0.21
-0.21
-0.195
-0.195
-0.19
-0.18
-0.185
-0.185
-0.2
-0.2
-0.2
-0.205
-0.22
-0.21
-0.215
-0.21
-0.215
-0.215
-0.21
-0.21
-0.225
-0.23
-0.235
-0.235
-0.24
-0.235
-0.225
-0.225
-0.225
-0.205
-0.21
-0.22
-0.23
-0.24
-0.245
-0.24
-0.245
-0.24
-0.225
-0.22
-0.215
-0.21
-0.215
-0.215
-0.225
-0.225
-0.23
-0.24
-0.235
-0.235
-0.22
-0.23
-0.23
-0.22
-0.22
-0.22
-0.23
-0.225
-0.23
-0.23
-0.225
-0.23
-0.22
-0.21
-0.19
-0.17
-0.16
-0.155
-0.14
-0.13
-0.1
-0.1
-0.08
-0.07
-0.06
-0.04
-0.025
0.02
0.05
0.075
0.095
0.11
0.095
0.065
0.045
0.035
0.035
0.04
0.055
0.07
0.055
0.04
0.0
-0.03
-0.07
-0.11
-0.13
-0.15
-0.16
-0.17
-0.175
-0.19
-0.205
-0.215
-0.24
-0.25
-0.255
-0.255
-0.25
-0.245
-0.23
-0.22
-0.21
-0.21
-0.21
-0.2
-0.195
-0.175
-0.11
0.0
0.15
0.355
0.57
0.775
0.96
1.135
1.3
1.445
1.57
1.64
1.665
1.63
1.56
1.41
1.18
0.885
0.575
0.285
0.065
-0.08
-0.17
-0.2
-0.23
-0.245
-0.255
-0.29
-0.33
-0.36
-0.38
-0.395
-0.395
-0.395
-0.39
-0.4
-0.41
-0.42
-0.42
-0.435
-0.42
-0.425
-0.425
-0.43
-0.435
-0.425
-0.43
-0.44
-0.45
-0.45
-0.445
-0.45
-0.445
-0.445
-0.435
-0.435
-0.435
-0.44
-0.445
-0.45
-0.475
-0.475
-0.47
-0.48
-0.49
-0.505
-0.5
-0.495
-0.515
-0.52
-0.515
-0.55
-0.55
-0.575
-0.59
-0.585
-0.595
-0.615
-0.62
-0.635
-0.65
-0.67
-0.685
-0.695
-0.725
-0.74
-0.75
-0.755
-0.76
-0.77
-0.765
-0.77
-0.775
-0.775
-0.775
-0.77
-0.77
-0.76
-0.74
-0.73
-0.705
-0.675
-0.64
-0.605
-0.575
-0.53
-0.52
-0.485
-0.46
-0.435
-0.41
-0.37
-0.335
-0.3
-0.28
-0.255
-0.235
-0.22
-0.22
-0.22
-0.205
-0.2
-0.2
-0.195
-0.18
-0.17
-0.17
-0.155
-0.155
-0.165
-0.17
-0.165
-0.165
-0.17
-0.17
-0.175
-0.17
-0.155
-0.145
-0.145
-0.145
-0.14
-0.145
-0.145
-0.155
-0.165
-0.155
-0.16
-0.145
-0.14
-0.135
-0.135
-0.125
-0.125
-0.12
-0.11
-0.11
-0.1
-0.09
-0.065
-0.03
-0.015
0.01
0.015
0.03
0.045
0.04
0.055
0.07
0.09
0.14
0.17
0.19
0.18
0.155
0.14
0.125
0.125
0.12
0.13
0.13
0.12
0.1
0.065
0.025
0.01
-0.02
-0.04
-0.08
-0.085
-0.11
-0.13
-0.15
-0.17
-0.17
-0.18
-0.175
-0.165
-0.165
-0.145
-0.15
-0.15
-0.16
-0.15
-0.16
-0.155
-0.155
-0.145
-0.145
-0.095
-0.03
0.075
0.215
0.39
0.595
0.775
0.955
1.12
1.285
1.43
1.555
1.635
1.67
1.655
1.575
1.455
1.26
0.985
0.685
0.39
0.17
-0.005
-0.11
-0.145
-0.155
-0.135
-0.14
-0.155
-0.195
-0.23
-0.27
-0.29
-0.3
-0.295
-0.295
-0.285
-0.275
-0.28
-0.285
-0.28
-0.295
-0.295
-0.3
-0.31
-0.315
-0.315
-0.315
-0.315
-0.3
-0.295
-0.295
-0.295
-0.31
-0.31
-0.32
-0.32
-0.335
-0.34
-0.315
-0.32
-0.32
-0.315
-0.32
-0.33
-0.335
-0.35
-0.355
-0.375
-0.38
-0.385
-0.39
-0.395
-0.395
-0.405
-0.41
-0.42
-0.425
-0.455
-0.475
-0.485
-0.48
-0.495
-0.505
-0.5
-0.495
-0.49
-0.5
-0.5
-0.505
-0.51
-0.51
-0.5
-0.48
-0.46
-0.445
-0.42
-0.39
-0.37
-0.34
-0.31
-0.295
-0.265
-0.255
-0.25
-0.23
-0.21
-0.19
-0.175
-0.145
-0.145
-0.135
-0.12
-0.11
-0.11
-0.12
-0.12
-0.11
-0.11
-0.11
-0.11
-0.105
-0.085
-0.09
-0.08
-0.09
-0.09
-0.1
-0.105
-0.1
-0.11
-0.095
-0.09
-0.085
-0.08
-0.085
-0.075
-0.08
-0.075
-0.09
-0.1
-0.095
-0.11
-0.11
-0.105
-0.095
-0.085
-0.095
-0.095
-0.09
-0.105
-0.105
-0.095
-0.08
-0.08
-0.06
-0.03
-0.015
0.015
0.025
0.04
0.035
0.045
0.06
0.07
0.09
0.12
0.16
0.185
0.22
0.24
0.225
0.2
0.18
0.16
0.145
0.14
0.16
0.165
0.175
0.16
0.14
0.11
0.075
0.045
0.01
-0.025
-0.04
-0.055
-0.065
-0.07
-0.09
-0.095
-0.1
-0.105
-0.115
-0.12
-0.115
-0.115
-0.125
-0.12
-0.13
-0.11
-0.11
-0.095
-0.09
-0.075
-0.105
-0.07
-0.04
0.0
0.105
0.22
0.395
0.595
0.795
0.96
1.14
1.285
1.43
1.555
1.655
1.68
1.645
1.585
1.48
1.3
1.07
0.8
0.54
0.315
0.14
0.03
-0.045
-0.075
-0.1
-0.115
-0.14
-0.17
-0.205
-0.23
-0.25
-0.265
-0.25
-0.255
-0.255
-0.255
-0.265
-0.285
-0.295
-0.3
-0.29
-0.3
-0.29
-0.285
-0.285
-0.295
-0.295
-0.295
-0.305
-0.31
-0.315
-0.31
-0.31
-0.32
-0.32
-0.31
-0.3
-0.295
-0.305
-0.315
-0.325
-0.335
-0.345
-0.35
-0.355
-0.35
-0.35
-0.355
-0.36
-0.37
-0.385
-0.405
-0.42
-0.43
-0.44
-0.445
-0.455
-0.465
-0.465
-0.475
-0.485
-0.51
-0.515
-0.52
-0.53
-0.54
-0.545
-0.55
-0.545
-0.545
-0.535
-0.525
-0.515
-0.495
-0.48
-0.465
-0.455
-0.435
-0.415
-0.385
-0.365
-0.335
-0.295
-0.27
-0.25
-0.23
-0.215
-0.2
-0.18
-0.18
-0.155
-0.145
-0.135
-0.12
-0.105
-0.09
-0.095
-0.115
-0.105
-0.09
-0.095
-0.095
-0.1
-0.105
-0.1
-0.095
-0.08
-0.07
-0.07
-0.07
-0.08
-0.075
-0.06
-0.055
-0.04
-0.005
0.01
0.045
0.09
0.15
0.185
0.26
0.305
0.38
0.435
0.51
0.615
0.715
0.81
0.865
0.83
0.665
0.395
-0.025
-0.51
-0.995
-1.38
-1.665
-1.855
-1.98
-2.075
-2.15
-2.185
-2.21
-2.205
-2.185
-2.15
-2.08
-1.99
-1.885
-1.765
-1.645
-1.515
-1.445
-1.395
-1.345
-1.32
-1.275
-1.215
-1.135
-1.025
-0.915
-0.795
-0.695
-0.64
-0.605
-0.56
-0.545
-0.49
-0.425
-0.32
-0.2
-0.065
0.05
0.15
0.22
0.25
0.28
0.265
0.29
0.305
0.305
0.325
0.34
0.355
0.365
0.37
0.375
0.415
0.425
0.435
0.475
0.48
0.49
0.5
0.515
0.515
0.525
0.545
0.565
0.59
0.605
0.645
0.66
0.675
0.695
0.71
0.73
0.745
0.765
0.78
0.805
0.835
0.865
0.865
0.89
0.9
0.935
0.94
0.945
0.94
0.935
0.94
0.94
0.94
0.93
0.915
0.91
0.88
0.855
0.835
0.8
0.77
0.745
0.7
0.675
0.635
0.605
0.58
0.55
0.51
0.475
0.445
0.41
0.375
0.34
0.29
0.27
0.24
0.23
0.21
0.195
0.17
0.14
0.125
0.11
0.08
0.055
0.04
0.02
0.015
0.015
-0.005
0.01
0.005
-0.005
-0.01
-0.045
-0.045
-0.05
-0.065
-0.05
-0.045
-0.035
-0.04
-0.02
-0.025
-0.02
-0.05
-0.05
-0.06
-0.055
-0.05
-0.06
-0.05
-0.04
-0.03
-0.02
-0.02
-0.03
-0.04
-0.045
-0.06
-0.06
-0.06
-0.07
-0.07
-0.06
-0.065
-0.05
-0.06
-0.07
-0.075
-0.09
-0.08
-0.1
-0.095
-0.11
-0.105
-0.09
-0.085
-0.08
-0.08
-0.085
-0.095
-0.105
-0.105
-0.105
-0.115
-0.12
-0.11
-0.11
-0.09
-0.1
-0.11
-0.095
-0.095
-0.095
-0.11
-0.105
-0.115
-0.11
-0.12
-0.1
-0.1
-0.1
-0.095
-0.09
-0.1
-0.11
-0.12
-0.12
-0.11
-0.115
-0.11
-0.12
-0.1
-0.09
-0.095
-0.075
-0.06
-0.055
-0.045
-0.035
-0.015
0.0
0.02
0.035
0.055
0.055
0.065
0.09
0.11
0.13
0.16
0.18
0.2
0.19
0.18
0.155
0.14
0.125
0.115
0.115
0.14
0.14
0.12
0.095
0.07
0.04
0.015
-0.005
-0.02
-0.045
-0.05
-0.08
-0.1
-0.125
-0.145
-0.17
-0.185
-0.18
-0.165
-0.155
-0.15
-0.14
-0.14
-0.14
-0.135
-0.145
-0.145
-0.155
-0.14
-0.09
-0.025
0.085
0.25
0.455
0.665
0.86
1.045
1.22
1.38
1.515
1.605
1.645
1.615
1.55
1.41
1.205
0.93
0.61
0.335
0.115
-0.025
-0.12
-0.165
-0.18
-0.19
-0.2
-0.225
-0.26
-0.29
-0.32
-0.335
-0.345
-0.355
-0.35
-0.36
-0.375
-0.37
-0.375
-0.38
-0.36
-0.37
-0.375
-0.375
-0.37
-0.385
-0.385
-0.385
-0.39
-0.4
-0.39
-0.39
-0.38
-0.39
-0.39
-0.395
-0.395
-0.405
-0.41
-0.415
-0.415
-0.425
-0.41
-0.425
-0.415
-0.42
-0.435
-0.44
-0.47
-0.485
-0.5
-0.51
-0.525
-0.55
-0.555
-0.58
-0.585
-0.595
-0.615
-0.635
-0.655
-0.67
-0.685
-0.71
-0.73
-0.735
-0.72
-0.725
-0.73
-0.74
-0.735
-0.735
-0.735
-0.745
-0.745
-0.74
-0.72
-0.7
-0.67
-0.64
-0.6
-0.58
-0.55
-0.525
-0.505
-0.48
-0.455
-0.43
-0.41
-0.385
-0.35
-0.32
-0.285
-0.265
-0.24
-0.23
-0.22
-0.22
-0.21
-0.195
-0.195
-0.18
-0.185
-0.18
-0.16
-0.165
-0.155
-0.165
-0.17
-0.175
-0.18
-0.185
-0.185
-0.195
-0.175
-0.165
-0.15
-0.145
-0.15
-0.14
-0.145
-0.155
-0.16
-0.16
-0.17
-0.175
-0.17
-0.17
-0.15
-0.16
-0.155
-0.15
-0.155
-0.145
-0.145
-0.14
-0.125
-0.08
-0.06
-0.035
-0.01
0.005
0.01
0.03
0.03
0.02
0.025
0.035
0.05
0.075
0.105
0.13
0.145
0.125
0.11
0.065
0.055
0.04
0.045
0.045
0.055
0.06
0.06
0.04
0.015
-0.015
-0.035
-0.05
-0.085
-0.1
-0.115
-0.135
-0.14
-0.155
-0.165
-0.18
-0.18
-0.19
-0.18
-0.2
-0.2
-0.19
-0.185
-0.18
-0.185
-0.165
-0.165
-0.17
-0.165
-0.145
-0.1
-0.05
0.05
0.19
0.375
0.61
0.83
1.03
1.215
1.38
1.54
1.64
1.68
1.665
1.575
1.4
1.16
0.845
0.495
0.22
0.01
-0.095
-0.145
-0.155
-0.15
-0.145
-0.16
-0.195
-0.235
-0.28
-0.305
-0.315
-0.31
-0.3
-0.295
-0.295
-0.29
-0.305
-0.32
-0.33
-0.345
-0.35
-0.355
-0.35
-0.355
-0.335
-0.335
-0.33
-0.34
-0.34
-0.34
-0.345
-0.34
-0.34
-0.335
-0.335
-0.335
-0.335
-0.34
-0.34
-0.35
-0.355
-0.37
-0.37
-0.395
-0.405
-0.41
-0.43
-0.43
-0.425
-0.42
-0.43
-0.45
-0.47
-0.475
-0.5
-0.505
-0.52
-0.54
-0.54
-0.535
-0.545
-0.545
-0.54
-0.55
-0.565
-0.575
-0.585
-0.585
-0.58
-0.565
-0.555
-0.535
-0.525
-0.5
-0.485
-0.47
-0.45
-0.445
-0.42
-0.395
-0.39
-0.365
-0.34
-0.305
-0.28
-0.25
-0.23
-0.215
-0.205
-0.195
-0.2
-0.21
-0.195
-0.19
-0.185
-0.18
-0.175
-0.165
-0.17
-0.175
-0.175
-0.195
-0.2
-0.205
-0.205
-0.19
-0.19
-0.175
-0.16
-0.165
-0.165
-0.175
-0.18
-0.18
-0.18
-0.2
-0.2
-0.195
-0.195
-0.185
-0.18
-0.16
-0.16
-0.165
-0.155
-0.16
-0.17
-0.185
-0.185
-0.19
-0.185
-0.15
-0.135
-0.11
-0.085
-0.06
-0.04
-0.03
-0.015
-0.01
-0.005
0.01
0.01
0.03
0.055
0.085
0.11
0.125
0.12
0.085
0.055
0.04
0.02
0.02
0.03
0.035
0.045
0.02
0.005
-0.005
-0.025
-0.06
-0.09
-0.105
-0.12
-0.135
-0.14
-0.145
-0.165
-0.16
-0.185
-0.18
-0.18
-0.165
-0.17
-0.17
-0.175
-0.18
-0.17
-0.155
-0.155
-0.14
-0.125
-0.085
-0.01
0.095
0.26
0.445
0.65
0.85
1.035
1.205
1.365
1.53
1.65
1.73
1.77
1.735
1.645
1.48
1.215
0.895
0.545
0.265
0.04
-0.08
-0.135
-0.16
-0.13
-0.145
-0.16
-0.2
-0.25
-0.285
-0.305
-0.315
-0.315
-0.305
-0.31
-0.295
-0.305
-0.335
-0.335
-0.35
-0.355
-0.35
-0.345
-0.345
-0.33
-0.335
-0.33
-0.335
-0.345
-0.345
-0.345
-0.36
-0.36
-0.365
-0.365
-0.365
-0.365
-0.355
-0.36
-0.365
-0.365
-0.38
-0.375
-0.395
-0.405
-0.415
-0.415
-0.425
-0.42
-0.41
-0.415
-0.42
-0.44
-0.455
-0.465
-0.485
-0.49
-0.51
-0.52
-0.535
-0.535
-0.55
-0.58
-0.59
-0.59
-0.6
-0.61
-0.615
-0.62
-0.635
-0.615
-0.61
-0.585
-0.57
-0.56
-0.54
-0.52
-0.52
-0.515
-0.475
-0.47
-0.435
-0.42
-0.375
-0.345
-0.31
-0.295
-0.285
-0.25
-0.24
-0.215
-0.215
-0.215
-0.19
-0.18
-0.16
-0.155
-0.145
-0.14
-0.135
-0.13
-0.145
-0.15
-0.15
-0.165
-0.155
-0.155
-0.145
-0.14
-0.13
-0.125
-0.13
-0.13
-0.135
-0.135
-0.135
-0.145
-0.13
-0.125
-0.125
-0.13
-0.125
-0.115
-0.115
-0.125
-0.14
-0.15
-0.15
-0.165
-0.15
-0.15
-0.125
-0.115
-0.09
-0.08
-0.07
-0.07
-0.06
-0.04
-0.025
-0.015
0.015
0.02
0.045
0.055
0.065
0.075
0.085
0.1
0.115
0.14
0.16
0.155
0.135
0.105
0.085
0.085
0.09
0.105
0.1
0.09
0.07
0.05
0.01
-0.01
-0.025
-0.04
-0.055
-0.065
-0.07
-0.09
-0.105
-0.11
-0.14
-0.155
-0.16
-0.16
-0.155
-0.14
-0.14
-0.13
-0.115
-0.11
-0.105
-0.105
-0.115
-0.12
-0.105
-0.08
-0.005
0.095
0.255
0.445
0.66
0.87
1.045
1.225
1.385
1.545
1.67
1.74
1.76
1.715
1.63
1.45
1.2
0.845
0.52
0.255
0.055
-0.08
-0.12
-0.14
-0.14
-0.145
-0.15
-0.17
-0.21
-0.235
-0.25
-0.255
-0.285
-0.265
-0.27
-0.27
-0.28
-0.29
-0.27
-0.285
-0.28
-0.275
-0.285
-0.28
-0.29
-0.285
-0.295
-0.295
-0.305
-0.29
-0.31
-0.29
-0.285
-0.29
-0.285
-0.285
-0.295
-0.29
-0.31
-0.315
-0.32
-0.325
-0.325
-0.325
-0.315
-0.32
-0.325
-0.34
-0.345
-0.36
-0.39
-0.4
-0.415
-0.415
-0.42
-0.425
-0.44
-0.45
-0.475
-0.48
-0.505
-0.515
-0.52
-0.515
-0.515
-0.52
-0.515
-0.505
-0.505
-0.505
-0.495
-0.49
-0.475
-0.47
-0.455
-0.445
-0.425
-0.395
-0.36
-0.355
-0.315
-0.295
-0.275
-0.245
-0.24
-0.22
-0.205
-0.18
-0.17
-0.145
-0.135
-0.11
-0.11
-0.09
-0.08
-0.085
-0.095
-0.095
-0.09
-0.09
-0.09
-0.09
-0.085
-0.085
-0.065
-0.08
-0.09
-0.07
-0.085
-0.095
-0.11
-0.095
-0.11
-0.1
-0.085
-0.075
-0.06
-0.07
-0.06
-0.06
-0.07
-0.075
-0.09
-0.085
-0.085
-0.075
-0.07
-0.055
-0.055
-0.06
-0.065
-0.07
-0.07
-0.065
-0.05
-0.025
0.025
0.085
0.17
0.25
0.335
0.41
0.485
0.56
0.675
0.795
0.915
1.05
1.21
1.375
1.55
1.705
1.8
1.87
1.91
1.93
1.975
2.0
2.06
2.08
2.095
2.095
2.09
2.075
2.04
1.985
1.925
1.83
1.69
1.545
1.405
1.265
1.165
1.03
0.9
0.76
0.605
0.44
0.29
0.145
0.01
-0.11
-0.235
-0.335
-0.42
-0.475
-0.49
-0.505
-0.515
-0.53
-0.55
-0.58
-0.605
-0.635
-0.67
-0.69
-0.72
-0.735
-0.75
-0.74
-0.745
-0.765
-0.79
-0.81
-0.83
-0.84
-0.88
-0.91
-0.925
-0.93
-0.93
-0.94
-0.95
-0.95
-0.96
-0.98
-1.015
-1.04
-1.055
-1.075
-1.08
-1.105
-1.12
-1.11
-1.125
-1.135
-1.145
-1.155
-1.155
-1.165
-1.18
-1.175
-1.17
-1.16
-1.15
-1.135
-1.115
-1.09
-1.08
-1.05
-1.04
-1.015
-0.975
-0.955
-0.915
-0.89
-0.855
-0.805
-0.755
-0.715
-0.675
-0.635
-0.605
-0.565
-0.56
-0.515
-0.48
-0.435
-0.4
-0.37
-0.335
-0.32
-0.295
-0.285
-0.275
-0.265
-0.255
-0.23
-0.225
-0.215
-0.19
-0.18
-0.165
-0.155
-0.16
-0.145
-0.15
-0.16
-0.16
-0.16
-0.155
-0.165
-0.155
-0.145
-0.135
-0.13
-0.15
-0.155
-0.145
-0.165
-0.16
-0.165
-0.17
-0.16
-0.155
-0.145
-0.13
-0.13
-0.13
-0.125
-0.14
-0.14
-0.15
-0.15
-0.145
-0.14
-0.135
-0.13
-0.12
-0.12
-0.12
-0.125
-0.13
-0.135
-0.14
-0.14
-0.135
-0.135
-0.125
-0.12
-0.115
-0.105
-0.105
-0.11
-0.115
-0.11
-0.12
-0.125
-0.12
-0.105
-0.1
-0.095
-0.085
-0.075
-0.065
-0.065
-0.065
-0.04
-0.03
-0.01
0.01
0.035
0.06
0.075
0.095
0.1
0.115
0.12
0.14
0.15
0.17
0.185
0.195
0.2
0.195
0.175
0.17
0.15
0.145
0.16
0.15
0.145
0.125
0.115
0.095
0.075
0.065
0.055
0.055
0.04
0.05
0.055
0.055
0.06
0.07
0.095
0.115
0.17
0.235
0.31
0.38
0.47
0.555
0.645
0.76
0.83
0.865
0.815
0.675
0.43
0.085
-0.33
-0.74
-1.065
-1.31
-1.45
-1.545
-1.64
-1.765
-1.91
-2.035
-2.11
-2.125
-2.1
-2.035
-1.94
-1.82
-1.655
-1.46
-1.23
-1.025
-0.82
-0.62
-0.46
-0.32
-0.245
-0.185
-0.165
-0.145
-0.135
-0.135
-0.12
-0.11
-0.085
-0.07
-0.04
-0.03
-0.01
0.005
0.02
0.025
0.035
0.035
0.025
0.03
0.04
0.045
0.055
0.075
0.08
0.09
0.1
0.105
0.11
0.13
0.125
0.125
0.125
0.13
0.15
0.155
0.175
0.195
0.205
0.21
0.215
0.22
0.23
0.22
0.235
0.25
0.26
0.285
0.305
0.33
0.35
0.375
0.385
0.405
0.42
0.43
0.455
0.47
0.505
0.52
0.54
0.56
0.575
0.58
0.59
0.585
0.575
0.575
0.58
0.57
0.57
0.555
0.53
0.53
0.505
0.495
0.46
0.435
0.405
0.375
0.34
0.31
0.28
0.26
0.235
0.22
0.21
0.19
0.175
0.16
0.155
0.16
0.17
0.18
0.205
0.24
0.27
0.33
0.395
0.455
0.52
0.555
0.57
0.545
0.455
0.305
0.09
-0.185
-0.525
-0.86
-1.19
-1.49
-1.735
-1.96
-2.16
-2.335
-2.465
-2.54
-2.54
-2.475
-2.375
-2.27
-2.155
-2.045
-1.93
-1.805
-1.675
-1.55
-1.44
-1.35
-1.265
-1.18
-1.115
-1.05
-0.995
-0.915
-0.83
-0.745
-0.655
-0.5
-0.33
-0.16
0.0
0.12
0.21
0.25
0.28
0.27
0.285
0.285
0.295
0.29
0.285
0.29
0.3
0.32
0.345
0.365
0.39
0.395
0.405
0.395
0.4
0.4
0.405
0.415
0.43
0.45
0.47
0.48
0.5
0.5
0.505
0.51
0.52
0.525
0.535
0.565
0.565
0.595
0.605
0.625
0.645
0.66
0.675
0.68
0.66
0.685
0.695
0.735
0.74
0.75
0.755
0.785
0.79
0.78
0.78
0.775
0.765
0.755
0.74
0.725
0.705
0.695
0.675
0.655
0.635
0.61
0.58
0.54
0.51
0.47
0.425
0.4
0.37
0.34
0.32
0.28
0.24
0.215
0.185
0.165
0.145
0.12
0.095
0.08
0.055
0.04
0.035
0.03
0.025
0.005
0.005
-0.02
-0.03
-0.035
-0.05
-0.045
-0.04
-0.04
-0.04
-0.035
-0.035
-0.03
-0.035
-0.04
-0.045
-0.055
-0.06
-0.065
-0.06
-0.04
-0.045
-0.04
-0.035
-0.045
-0.055
-0.055
-0.07
-0.08
-0.085
-0.1
-0.09
-0.09
-0.085
-0.08
-0.09
-0.09
-0.105
-0.115
-0.125
-0.125
-0.135
-0.14
-0.13
-0.13
-0.125
-0.135
-0.135
-0.145
-0.14
-0.145
-0.155
-0.15
-0.155
-0.155
-0.15
-0.15
-0.155
-0.155
-0.15
-0.165
-0.155
-0.165
-0.185
-0.195
-0.185
-0.185
-0.2
-0.18
-0.18
-0.175
-0.18
-0.175
-0.175
-0.185
-0.19
-0.2
-0.195
-0.2
-0.195
-0.205
-0.195
-0.185
-0.2
-0.205
-0.19
-0.205
-0.21
-0.215
-0.22
-0.215
-0.215
-0.195
-0.2
-0.2
-0.195
-0.19
-0.195
-0.21
-0.205
-0.205
-0.215
-0.215
-0.215
-0.215
-0.21
-0.195
-0.195
-0.2
-0.205
-0.21
-0.215
-0.21
-0.21
-0.195
-0.18
-0.17
-0.15
-0.125
-0.105
-0.095
-0.08
-0.06
-0.07
-0.06
-0.05
-0.04
-0.005
0.035
0.07
0.1
0.12
0.105
0.095
0.065
0.045
0.025
0.03
0.03
0.04
0.05
0.03
0.025
-0.005
-0.035
-0.065
-0.105
-0.125
-0.155
-0.165
-0.195
-0.205
-0.21
-0.23
-0.235
-0.245
-0.255
-0.26
-0.26
-0.255
-0.26
-0.27
-0.26
-0.26
-0.245
-0.235
-0.235
-0.215
-0.175
-0.1
0.0
0.16
0.37
0.59
0.79
1.005
1.2
1.39
1.555
1.65
1.67
1.66
1.565
1.375
1.15
0.825
0.5
0.21
0.0
-0.145
-0.215
-0.25
-0.26
-0.27
-0.3
-0.335
-0.365
-0.4
-0.42
-0.435
-0.425
-0.415
-0.415
-0.42
-0.425
-0.445
-0.46
-0.48
-0.47
-0.485
-0.475
-0.475
-0.475
-0.46
-0.46
-0.46
-0.465
-0.475
-0.48
-0.505
-0.495
-0.505
-0.505
-0.51
-0.52
-0.515
-0.52
-0.52
-0.53
-0.525
-0.545
-0.555
-0.56
-0.555
-0.575
-0.575
-0.58
-0.59
-0.605
-0.61
-0.64
-0.645
-0.665
-0.68
-0.7
-0.725
-0.755
-0.755
-0.775
-0.785
-0.795
-0.8
-0.82
-0.825
-0.835
-0.855
-0.865
-0.865
-0.855
-0.85
-0.84
-0.83
-0.825
-0.8
-0.775
-0.765
-0.74
-0.72
-0.71
-0.65
-0.62
-0.595
-0.565
-0.53
-0.495
-0.47
-0.445
-0.415
-0.395
-0.38
-0.37
-0.35
-0.335
-0.305
-0.305
-0.29
-0.28
-0.28
-0.27
-0.275
-0.28
-0.28
-0.285
-0.3
-0.295
-0.28
-0.275
-0.245
-0.24
-0.22
-0.225
-0.23
-0.24
-0.245
-0.26
-0.28
-0.27
-0.275
-0.255
-0.235
-0.245
-0.25
-0.24
-0.24
-0.245
-0.235
-0.23
-0.225
-0.19
-0.18
-0.145
-0.115
-0.085
-0.06
-0.035
-0.02
0.0
0.015
0.04
0.08
0.115
0.16
0.24
0.325
0.43
0.565
0.665
0.77
0.84
0.91
0.965
1.045
1.155
1.25
1.35
1.445
1.515
1.55
1.57
1.55
1.455
1.275
0.985
0.58
0.08
-0.425
-0.87
-1.245
-1.485
-1.615
-1.65
-1.62
-1.53
-1.425
-1.305
-1.21
-1.115
-1.035
-0.94
-0.85
-0.745
-0.64
-0.545
-0.46
-0.41
-0.395
-0.395
-0.4
-0.41
-0.41
-0.415
-0.41
-0.395
-0.395
-0.395
-0.4
-0.39
-0.39
-0.405
-0.4
-0.395
-0.41
-0.395
-0.385
-0.38
-0.375
-0.38
-0.385
-0.385
-0.395
-0.395
-0.395
-0.39
-0.405
-0.395
-0.395
-0.385
-0.38
-0.395
-0.385
-0.39
-0.39
-0.39
-0.39
-0.375
-0.365
-0.345
-0.34
-0.325
-0.3
-0.305
-0.3
-0.3
-0.295
-0.285
-0.27
-0.25
-0.245
-0.21
-0.19
-0.16
-0.13
-0.12
-0.11
-0.11
-0.105
-0.1
-0.105
-0.115
-0.11
-0.105
-0.095
-0.085
-0.08
-0.1
-0.095
-0.11
-0.125
-0.15
-0.16
-0.17
-0.185
-0.205
-0.21
-0.22
-0.225
-0.24
-0.245
-0.26
-0.275
-0.275
-0.28
-0.27
-0.27
-0.265
-0.26
-0.27
-0.27
-0.26
-0.26
-0.25
-0.265
-0.275
-0.28
-0.285
-0.27
-0.26
-0.245
-0.245
-0.23
-0.225
-0.23
-0.235
-0.235
-0.26
-0.265
-0.255
-0.27
-0.25
-0.235
-0.215
-0.21
-0.21
-0.2
-0.22
-0.24
-0.255
-0.255
-0.26
-0.25
-0.25
-0.23
-0.215
-0.2
-0.195
-0.205
-0.21
-0.225
-0.245
-0.24
-0.24
-0.245
-0.25
-0.245
-0.235
-0.215
-0.21
-0.225
-0.22
-0.21
-0.23
-0.225
-0.235
-0.22
-0.21
-0.185
-0.16
-0.14
-0.125
-0.105
-0.09
-0.085
-0.065
-0.075
-0.065
-0.055
-0.025
-0.005
0.03
0.055
0.075
0.065
0.06
0.02
0.005
-0.01
-0.01
-0.01
0.0
0.005
0.015
-0.015
-0.035
-0.065
-0.095
-0.12
-0.15
-0.16
-0.18
-0.185
-0.2
-0.21
-0.21
-0.23
-0.245
-0.25
-0.26
-0.26
-0.255
-0.26
-0.255
-0.26
-0.245
-0.235
-0.235
-0.225
-0.215
-0.195
-0.14
-0.055
0.085
0.29
0.52
0.76
0.985
1.185
1.375
1.54
1.68
1.76
1.75
1.7
1.56
1.33
0.995
0.635
0.3
0.045
-0.105
-0.18
-0.2
-0.195
-0.2
-0.225
-0.26
-0.31
-0.345
-0.375
-0.395
-0.385
-0.37
-0.365
-0.365
-0.365
-0.38
-0.4
-0.405
-0.405
-0.4
-0.4
-0.405
-0.395
-0.395
-0.385
-0.385
-0.385
-0.4
-0.405
-0.41
-0.42
-0.415
-0.425
-0.405
-0.42
-0.42
-0.415
-0.445
-0.435
-0.44
-0.455
-0.45
-0.465
-0.475
-0.475
-0.47
-0.47
-0.48
-0.485
-0.485
-0.51
-0.52
-0.55
-0.56
-0.585
-0.58
-0.59
-0.59
-0.605
-0.615
-0.625
-0.65
-0.655
-0.67
-0.695
-0.69
-0.705
-0.725
-0.705
-0.72
-0.71
-0.695
-0.69
-0.675
-0.655
-0.65
-0.64
-0.615
-0.59
-0.565
-0.53
-0.5
-0.48
-0.45
-0.42
-0.405
-0.37
-0.355
-0.335
-0.315
-0.295
-0.265
-0.255
-0.24
-0.225
-0.215
-0.21
-0.2
-0.2
-0.205
-0.2
-0.215
-0.21
-0.205
-0.205
-0.21
-0.21
-0.185
-0.185
-0.195
-0.19
-0.205
-0.2
-0.19
-0.19
-0.19
-0.185
-0.18
-0.18
-0.18
-0.16
-0.16
-0.16
-0.17
-0.18
-0.18
-0.19
-0.18
-0.18
-0.165
-0.165
-0.15
-0.125
-0.135
-0.125
-0.115
-0.095
-0.085
-0.07
-0.05
-0.03
-0.015
-0.005
0.005
0.02
0.025
0.025
0.05
0.065
0.09
0.095
0.09
0.07
0.065
0.055
0.035
0.045
0.055
0.05
0.055
0.04
0.015
-0.01
-0.03
-0.055
-0.075
-0.085
-0.09
-0.105
-0.115
-0.13
-0.145
-0.16
-0.17
-0.18
-0.19
-0.175
-0.165
-0.155
-0.145
-0.14
-0.145
-0.14
-0.135
-0.14
-0.145
-0.15
-0.125
-0.085
0.005
0.12
0.29
0.48
0.675
0.88
1.045
1.215
1.37
1.5
1.64
1.715
1.75
1.75
1.695
1.59
1.4
1.12
0.79
0.46
0.205
0.025
-0.09
-0.13
-0.14
-0.13
-0.125
-0.14
-0.175
-0.205
-0.24
-0.27
-0.28
-0.295
-0.29
-0.28
-0.27
-0.26
-0.255
-0.26
-0.265
-0.27
-0.28
-0.28
-0.29
-0.305
-0.295
-0.29
-0.3
-0.29
-0.295
-0.28
-0.28
-0.28
-0.29
-0.305
-0.305
-0.315
-0.305
-0.3
-0.315
-0.31
-0.31
-0.305
-0.31
-0.305
-0.32
-0.33
-0.345
-0.36
-0.35
-0.36
-0.36
-0.37
-0.37
-0.38
-0.395
-0.4
-0.415
-0.435
-0.445
-0.455
-0.47
-0.47
-0.475
-0.475
-0.455
-0.465
-0.47
-0.47
-0.48
-0.48
-0.48
-0.48
-0.46
-0.445
-0.425
-0.4
-0.39
-0.365
-0.35
-0.33
-0.315
-0.295
-0.27
-0.26
-0.24
-0.21
-0.19
-0.175
-0.155
-0.135
-0.13
-0.11
-0.12
-0.1
-0.095
-0.095
-0.09
-0.08
-0.07
-0.065
-0.055
-0.055
-0.05
-0.045
-0.05
-0.035
-0.035
-0.01
0.01
0.025
0.065
0.105
0.155
0.19
0.25
0.3
0.355
0.425
0.49
0.56
0.665
0.765
0.875
0.945
0.93
0.82
0.565
0.19
-0.27
-0.755
-1.145
-1.455
-1.66
-1.815
-1.92
-1.99
-2.04
-2.075
-2.095
-2.095
-2.08
-2.025
-1.965
-1.885
-1.8
-1.695
-1.565
-1.445
-1.33
-1.24
-1.175
-1.125
-1.055
-0.98
-0.89
-0.8
-0.735
-0.695
-0.63
-0.585
-0.52
-0.445
-0.345
-0.235
-0.115
-0.015
0.11
0.215
0.3
0.345
0.38
0.39
0.4
0.405
0.385
0.395
0.415
0.425
0.44
0.465
0.48
0.495
0.51
0.54
0.56
0.57
0.57
0.595
0.61
0.615
0.63
0.645
0.65
0.675
0.695
0.71
0.74
0.765
0.775
0.785
0.805
0.825
0.84
0.865
0.885
0.9
0.925
0.945
0.96
1.0
1.01
1.025
1.025
1.03
1.015
1.015
1.025
1.025
1.035
1.015
1.015
1.005
0.995
0.96
0.93
0.915
0.885
0.85
0.82
0.78
0.775
0.75
0.71
0.68
0.635
0.61
0.57
0.535
0.48
0.45
0.44
0.41
0.375
0.36
0.34
0.325
0.31
0.285
0.25
0.23
0.2
0.19
0.175
0.155
0.15
0.15
0.14
0.13
0.12
0.115
0.1
0.095
0.09
0.08
0.075
0.075
0.085
0.085
0.1
0.105
0.09
0.09
0.095
0.095
0.065
0.06
0.075
0.075
0.085
0.075
0.09
0.085
0.095
0.095
0.08
0.065
0.06
0.04
0.055
0.065
0.055
0.075
0.065
0.065
0.06
0.075
0.04
0.03
0.03
0.02
0.03
0.035
0.035
0.04
0.04
0.045
0.04
0.03
0.03
0.035
0.015
0.005
0.02
0.01
-0.005
0.03
0.035
0.03
0.025
0.01
0.0
-0.005
-0.005
-0.015
-0.015
0.0
-0.005
0.01
0.005
0.01
0.0
0.0
-0.01
0.0
-0.005
0.0
0.0
-0.01
-0.005
0.015
0.02
0.02
0.02
0.025
0.01
0.01
0.015
0.03
0.035
0.045
0.055
0.085
0.11
0.13
0.15
0.17
0.175
0.195
0.195
0.205
0.215
0.24
0.27
0.31
0.345
0.345
0.345
0.325
0.295
0.28
0.255
0.25
0.26
0.27
0.265
0.255
0.245
0.215
0.165
0.145
0.125
0.105
0.09
0.06
0.05
0.045
0.015
0.015
0.015
0.005
-0.005
0.005
0.0
-0.005
-0.005
0.005
0.005
0.015
0.02
0.045
0.05
0.06
0.085
0.14
0.245
0.4
0.57
0.775
0.97
1.17
1.355
1.525
1.68
1.81
1.875
1.875
1.81
1.69
1.49
1.21
0.905
0.615
0.385
0.22
0.11
0.06
0.025
0.01
-0.025
-0.05
-0.085
-0.115
-0.12
-0.14
-0.145
-0.145
-0.145
-0.135
-0.135
-0.14
-0.15
-0.155
-0.165
-0.165
-0.175
-0.18
-0.165
-0.155
-0.16
-0.165
-0.165
-0.165
-0.18
-0.18
-0.19
-0.2
-0.205
-0.21
-0.2
-0.19
-0.185
-0.185
-0.205
-0.22
-0.22
-0.24
-0.26
-0.27
-0.28
-0.275
-0.275
-0.275
-0.285
-0.29
-0.32
-0.32
-0.355
-0.38
-0.405
-0.415
-0.425
-0.46
-0.465
-0.465
-0.46
-0.475
-0.49
-0.5
-0.525
-0.545
-0.56
-0.565
-0.565
-0.585
-0.58
-0.565
-0.55
-0.545
-0.525
-0.515
-0.505
-0.495
-0.48
-0.465
-0.445
-0.405
-0.38
-0.345
-0.31
-0.275
-0.27
-0.23
-0.21
-0.205
-0.19
-0.17
-0.135
-0.105
-0.09
-0.06
-0.05
-0.025
-0.025
-0.015
-0.02
-0.02
-0.005
-0.015
-0.005
-0.005
0.005
0.01
0.005
0.01
0.005
0.0
0.01
0.005
-0.005
-0.005
-0.005
-0.015
0.0
-0.01
0.0
0.025
0.015
0.015
0.02
0.01
0.0
0.0
0.0
0.005
0.015
0.03
0.045
0.07
0.085
0.11
0.135
0.16
0.185
0.2
0.22
0.24
0.255
0.27
0.285
0.31
0.33
0.375
0.41
0.465
0.52
0.57
0.615
0.685
0.765
0.84
0.92
1.005
1.085
1.16
1.25
1.32
1.37
1.435
1.49
1.56
1.6
1.63
1.605
1.505
1.33
1.04
0.635
0.175
-0.3
-0.73
-1.08
-1.295
-1.425
-1.465
-1.41
-1.31
-1.2
-1.09
-1.0
-0.94
-0.875
-0.805
-0.72
-0.615
-0.485
-0.375
-0.275
-0.2
-0.17
-0.155
-0.16
-0.165
-0.17
-0.18
-0.17
-0.16
-0.145
-0.14
-0.125
-0.125
-0.14
-0.14
-0.14
-0.15
-0.155
-0.16
-0.14
-0.145
-0.13
-0.125
-0.13
-0.11
-0.13
-0.13
-0.125
-0.135
-0.145
-0.14
-0.145
-0.14
-0.13
-0.13
-0.115
-0.1
-0.115
-0.105
-0.105
-0.105
-0.11
-0.105
-0.075
-0.08
-0.055
-0.04
-0.02
-0.01
-0.005
0.01
0.04
0.045
0.055
0.06
0.1
0.11
0.12
0.13
0.15
0.175
0.175
0.18
0.185
0.17
0.155
0.155
0.155
0.145
0.145
0.145
0.14
0.12
0.105
0.08
0.07
0.04
0.025
0.02
-0.005
-0.01
-0.01
-0.01
-0.025
-0.015
-0.025
-0.025
-0.04
-0.045
-0.05
-0.05
-0.055
-0.055
-0.06
-0.055
-0.055
-0.055
-0.05
-0.05
-0.06
-0.06
-0.075
-0.06
-0.055
-0.045
-0.03
-0.035
-0.025
-0.025
-0.03
-0.04
-0.04
-0.045
-0.06
-0.065
-0.065
-0.06
-0.065
-0.055
-0.045
-0.05
-0.035
-0.025
-0.04
-0.05
-0.055
-0.065
-0.07
-0.065
-0.06
-0.06
-0.045
-0.04
-0.04
-0.04
-0.045
-0.04
-0.05
-0.05
-0.05
-0.04
-0.03
-0.025
-0.01
0.0
0.02
0.035
0.05
0.07
0.07
0.075
0.095
0.11
0.125
0.135
0.135
0.155
0.17
0.195
0.205
0.22
0.22
0.21
0.185
0.155
0.14
0.13
0.155
0.16
0.16
0.145
0.145
0.11
0.085
0.06
0.04
0.025
0.025
0.02
0.005
-0.015
-0.025
-0.05
-0.06
-0.095
-0.115
-0.135
-0.125
-0.12
-0.1
-0.1
-0.09
-0.075
-0.075
-0.06
-0.06
-0.06
-0.065
-0.045
-0.05
-0.01
0.05
0.165
0.35
0.56
0.76
0.975
1.145
1.315
1.465
1.6
1.735
1.805
1.83
1.795
1.71
1.54
1.285
0.97
0.625
0.325
0.115
0.005
-0.055
-0.09
-0.06
-0.07
-0.08
-0.1
-0.155
-0.195
-0.225
-0.23
-0.245
-0.255
-0.245
-0.245
-0.24
-0.235
-0.24
-0.235
-0.25
-0.25
-0.265
-0.275
-0.29
-0.295
-0.285
-0.3
-0.305
-0.285
-0.28
-0.275
-0.27
-0.29
-0.29
-0.3
-0.31
-0.32
-0.305
-0.31
-0.31
-0.315
-0.315
-0.31
-0.325
-0.34
-0.34
-0.37
-0.385
-0.395
-0.415
-0.43
-0.44
-0.45
-0.455
-0.465
-0.49
-0.495
-0.525
-0.535
-0.565
-0.585
-0.605
-0.61
-0.62
-0.625
-0.625
-0.615
-0.615
-0.61
-0.605
-0.61
-0.61
-0.595
-0.575
-0.55
-0.53
-0.51
-0.48
-0.44
-0.415
-0.38
-0.335
-0.32
-0.295
-0.28
-0.26
-0.245
-0.225
-0.215
-0.185
-0.175
-0.15
-0.15
-0.145
-0.145
-0.15
-0.145
-0.15
-0.155
-0.145
-0.145
-0.125
-0.115
-0.11
-0.11
-0.115
-0.12
-0.12
-0.13
-0.12
-0.12
-0.115
-0.11
-0.12
-0.105
-0.12
-0.11
-0.11
-0.105
-0.115
-0.105
-0.1
-0.11
-0.105
-0.1
-0.1
-0.105
-0.105
-0.11
-0.1
-0.1
-0.095
-0.08
-0.055
-0.045
-0.01
0.015
0.035
0.05
0.06
0.06
0.07
0.065
0.06
0.065
0.075
0.085
0.115
0.15
0.15
0.145
0.125
0.1
0.075
0.065
0.06
0.065
0.065
0.07
0.07
0.055
0.035
0.01
-0.01
-0.02
-0.04
-0.05
-0.065
-0.085
-0.095
-0.125
-0.125
-0.125
-0.115
-0.12
-0.115
-0.115
-0.105
-0.115
-0.11
-0.115
-0.105
-0.1
-0.1
-0.09
-0.04
0.035
0.15
0.33
0.53
0.75
0.965
1.165
1.355
1.53
1.675
1.765
1.815
1.785
1.695
1.535
1.28
0.935
0.59
0.275
0.07
-0.05
-0.105
-0.11
-0.105
-0.09
-0.105
-0.125
-0.165
-0.195
-0.23
-0.26
-0.265
-0.28
-0.27
-0.245
-0.25
-0.26
-0.27
-0.275
-0.275
-0.28
-0.295
-0.305
-0.285
-0.29
-0.27
-0.28
-0.265
-0.25
-0.27
-0.265
-0.285
-0.29
-0.31
-0.32
-0.315
-0.32
-0.325
-0.33
-0.32
-0.32
-0.33
-0.335
-0.33
-0.34
-0.355
-0.365
-0.37
-0.385
-0.395
-0.385
-0.39
-0.405
-0.415
-0.43
-0.435
-0.455
-0.46
-0.48
-0.485
-0.5
-0.505
-0.5
-0.51
-0.515
-0.525
-0.525
-0.54
-0.54
-0.555
-0.56
-0.555
-0.56
-0.555
-0.535
-0.495
-0.49
-0.485
-0.465
-0.435
-0.42
-0.405
-0.39
-0.365
-0.345
-0.315
-0.275
-0.27
-0.245
-0.23
-0.205
-0.21
-0.2
-0.19
-0.19
-0.185
-0.17
-0.15
-0.155
-0.15
-0.145
-0.145
-0.15
-0.155
-0.165
-0.16
-0.155
-0.145
-0.135
-0.11
-0.095
-0.075
-0.05
-0.015
0.005
0.045
0.085
0.15
0.205
0.275
0.335
0.415
0.525
0.635
0.77
0.865
0.925
0.905
0.79
0.53
0.155
-0.335
-0.815
-1.215
-1.525
-1.73
-1.885
-2.005
-2.09
-2.155
-2.18
-2.18
-2.155
-2.11
-2.035
-1.935
-1.82
-1.69
-1.56
-1.45
-1.36
-1.295
-1.25
-1.175
-1.095
-0.985
-0.9
-0.845
-0.8
-0.76
-0.71
-0.64
-0.565
-0.46
-0.36
-0.24
-0.12
-0.005
0.105
0.18
0.24
0.26
0.26
0.265
0.265
0.255
0.26
0.26
0.29
0.305
0.33
0.355
0.365
0.385
0.405
0.41
0.43
0.44
0.45
0.465
0.47
0.495
0.495
0.52
0.56
0.585
0.61
0.625
0.645
0.65
0.665
0.695
0.7
0.735
0.76
0.775
0.805
0.835
0.86
0.875
0.88
0.885
0.89
0.885
0.875
0.87
0.86
0.87
0.85
0.84
0.81
0.77
0.76
0.71
0.67
0.635
0.585
0.545
0.51
0.495
0.465
0.445
0.42
0.38
0.345
0.32
0.285
0.245
0.205
0.165
0.15
0.125
0.115
0.095
0.095
0.07
0.05
0.025
0.0
-0.02
-0.04
-0.065
-0.065
-0.065
-0.06
-0.055
-0.035
-0.045
-0.035
-0.04
-0.06
-0.07
-0.105
-0.115
-0.125
-0.11
-0.09
-0.065
-0.04
-0.035
-0.055
-0.06
-0.08
-0.1
-0.11
-0.105
-0.1
-0.11
-0.105
-0.105
-0.085
-0.08
-0.085
-0.07
-0.075
-0.095
-0.125
-0.13
-0.13
-0.12
-0.115
-0.105
-0.11
-0.12
-0.115
-0.115
-0.12
-0.12
-0.135
-0.135
-0.15
-0.15
-0.14
-0.145
-0.135
-0.125
-0.125
-0.125
-0.125
-0.115
-0.115
-0.125
-0.135
-0.145
-0.155
-0.155
-0.155
-0.125
-0.12
-0.095
-0.095
-0.085
-0.09
-0.105
-0.135
-0.165
-0.19
-0.195
-0.175
-0.145
-0.11
-0.095
-0.1
-0.115
-0.12
-0.125
-0.13
-0.135
-0.135
-0.13
-0.125
-0.125
-0.12
-0.105
-0.1
-0.075
-0.06
-0.04
-0.035
-0.035
-0.02
-0.005
0.02
0.06
0.09
0.125
0.145
0.185
0.2
0.185
0.16
0.14
0.11
0.105
0.095
0.1
0.105
0.125
0.145
0.155
0.155
0.135
0.125
0.075
0.035
0.0
-0.015
-0.045
-0.06
-0.055
-0.075
-0.105
-0.135
-0.16
-0.18
-0.165
-0.145
-0.14
-0.16
-0.16
-0.15
-0.135
-0.115
-0.1
-0.12
-0.135
-0.17
-0.185
-0.195
-0.16
-0.08
0.035
0.185
0.35
0.535
0.74
0.94
1.105
1.25
1.395
1.525
1.62
1.66
1.635
1.57
1.41
1.17
0.86
0.535
0.255
0.065
-0.055
-0.155
-0.195
-0.195
-0.215
-0.23
-0.265
-0.3
-0.32
-0.365
-0.415
-0.475
-0.515
-0.515
-0.5
-0.47
-0.45
-0.445
-0.44
-0.45
-0.45
-0.44
-0.425
-0.43
-0.445
-0.465
-0.485
-0.49
-0.48
-0.46
-0.45
-0.46
-0.5
-0.52
-0.54
-0.565
-0.565
-0.565
-0.575
-0.555
-0.56
-0.555
-0.555
-0.56
-0.58
-0.615
-0.62
-0.635
-0.665
-0.68
-0.69
-0.68
-0.67
-0.665
-0.665
-0.7
-0.75
-0.81
-0.84
-0.83
-0.805
-0.79
-0.8
-0.84
-0.895
-0.95
-0.99
-1.005
-0.99
-0.92
-0.84
-0.795
-0.815
-0.86
-0.91
-0.95
-0.965
-0.945
-0.91
-0.85
-0.83
-0.81
-0.79
-0.785
-0.78
-0.785
-0.76
-0.725
-0.675
-0.59
-0.53
-0.49
-0.475
-0.48
-0.48
-0.47
-0.475
-0.49
-0.475
-0.4
-0.345
-0.315
-0.335
-0.36
-0.395
-0.405
-0.42
-0.43
-0.415
-0.375
-0.35
-0.325
-0.33
-0.325
-0.35
-0.37
-0.37
-0.4
-0.415
-0.44
-0.405
-0.345
-0.295
-0.265
-0.29
-0.315
-0.33
-0.345
-0.35
-0.36
-0.36
-0.35
-0.345
-0.345
-0.32
-0.3
-0.27
-0.225
-0.2
-0.21
-0.22
-0.235
-0.21
-0.185
-0.135
-0.06
-0.035
-0.015
-0.025
-0.025
0.0
0.01
0.035
0.045
0.05
0.075
0.095
0.14
0.21
0.295
0.38
0.45
0.51
0.55
0.595
0.65
0.735
0.85
0.955
1.06
1.15
1.215
1.265
1.305
1.3
1.25
1.14
0.94
0.665
0.31
-0.07
-0.46
-0.82
-1.09
-1.32
-1.49
-1.595
-1.64
-1.64
-1.58
-1.47
-1.365
-1.245
-1.13
-1.01
-0.925
-0.87
-0.79
-0.715
-0.655
-0.655
-0.65
-0.645
-0.595
-0.515
-0.44
-0.375
-0.365
-0.375
-0.36
-0.33
-0.315
-0.32
-0.34
-0.345
-0.35
-0.345
-0.34
-0.345
-0.37
-0.395
-0.42
-0.41
-0.365
-0.3
-0.215
-0.15
-0.115
-0.145
-0.26
-0.375
-0.465
-0.48
-0.455
-0.42
-0.37
-0.33
-0.285
-0.24
-0.23
-0.225
-0.21
-0.205
-0.23
-0.285
-0.35
-0.39
-0.385
-0.355
-0.315
-0.26
-0.24
-0.22
-0.225
-0.23
-0.205
-0.185
-0.155
-0.14
-0.12
-0.1
-0.105
-0.095
-0.065
-0.035
-0.01
-0.01
-0.01
-0.02
-0.015
-0.01
0.005
0.0
0.015
0.03
0.02
0.015
-0.005
-0.01
-0.015
-0.03
-0.045
-0.06
-0.085
-0.105
-0.135
-0.115
-0.085
-0.065
-0.075
-0.115
-0.18
-0.24
-0.26
-0.245
-0.205
-0.19
-0.18
-0.19
-0.195
-0.195
-0.195
-0.195
-0.16
-0.16
-0.14
-0.145
-0.145
-0.16
-0.155
-0.155
-0.135
-0.135
-0.105
-0.095
-0.095
-0.11
-0.12
-0.135
-0.125
-0.105
-0.105
-0.09
-0.08
-0.075
-0.055
-0.075
-0.08
-0.07
-0.06
-0.055
-0.035
-0.035
-0.02
-0.01
-0.03
-0.035
-0.06
-0.05
-0.03
-0.015
-0.01
-0.03
-0.045
-0.05
-0.045
-0.01
0.0
0.015
0.03
0.045
0.06
0.07
0.115
0.15
0.16
0.17
0.17
0.18
0.19
0.21
0.24
0.27
0.295
0.3
0.3
0.27
0.255
0.265
0.265
0.275
0.27
0.265
0.25
0.24
0.22
0.185
0.135
0.1
0.065
0.05
0.03
0.03
0.02
0.01
0.0
0.0
0.0
0.0
-0.005
-0.005
0.0
0.005
-0.005
-0.005
-0.025
-0.03
-0.015
0.015
0.08
0.16
0.265
0.405
0.58
0.78
0.98
1.175
1.365
1.54
1.695
1.805
1.87
1.87
1.81
1.705
1.49
1.22
0.905
0.595
0.335
0.165
0.075
0.04
0.04
0.035
0.015
-0.015
-0.075
-0.155
-0.225
-0.275
-0.295
-0.29
-0.255
-0.215
-0.18
-0.16
-0.14
-0.165
-0.195
-0.24
-0.285
-0.32
-0.335
-0.325
-0.32
-0.285
-0.25
-0.24
-0.235
-0.255
-0.265
-0.275
-0.29
-0.3
-0.29
-0.29
-0.295
-0.28
-0.27
-0.26
-0.24
-0.23
-0.23
-0.23
-0.275
-0.305
-0.35
-0.375
-0.375
-0.37
-0.355
-0.375
-0.375
-0.39
-0.395
-0.41
-0.435
-0.46
-0.48
-0.51
-0.52
-0.49
-0.465
-0.45
-0.455
-0.47
-0.505
-0.525
-0.55
-0.525
-0.54
-0.54
-0.52
-0.495
-0.45
-0.42
-0.39
-0.355
-0.33
-0.295
-0.265
-0.265
-0.27
-0.245
-0.235
-0.2
-0.175
-0.13
-0.085
-0.045
-0.035
-0.03
-0.04
-0.035
-0.045
-0.035
-0.015
0.01
0.03
0.02
0.015
0.0
-0.02
-0.04
-0.005
0.015
0.035
0.04
0.04
0.04
0.04
0.04
0.04
0.02
-0.015
-0.025
-0.005
0.015
0.025
0.045
0.05
0.06
0.05
0.05
0.055
0.07
0.07
0.075
0.055
0.055
0.05
0.05
0.05
0.08
0.11
0.13
0.165
0.185
0.195
0.21
0.235
0.22
0.21
0.195
0.195
0.245
0.3
0.365
0.42
0.43
0.4
0.36
0.31
0.28
0.29
0.32
0.345
0.34
0.325
0.305
0.26
0.225
0.19
0.17
0.155
0.165
0.175
0.175
0.135
0.095
0.075
0.055
0.06
0.06
0.085
0.095
0.09
0.08
0.05
0.035
0.04
0.07
0.085
0.105
0.1
0.095
0.115
0.17
0.28
0.455
0.67
0.915
1.135
1.315
1.495
1.66
1.79
1.865
1.885
1.865
1.79
1.67
1.47
1.2
0.9
0.62
0.41
0.235
0.095
0.02
-0.015
-0.005
0.01
0.025
0.03
0.005
-0.02
-0.05
-0.06
-0.07
-0.06
-0.06
-0.06
-0.07
-0.085
-0.095
-0.1
-0.08
-0.06
-0.04
-0.03
-0.05
-0.09
-0.105
-0.12
-0.125
-0.125
-0.14
-0.155
-0.175
-0.155
-0.135
-0.125
-0.11
-0.11
-0.115
-0.12
-0.115
-0.115
-0.115
-0.11
-0.13
-0.125
-0.14
-0.155
-0.155
-0.155
-0.155
-0.175
-0.23
-0.25
-0.255
-0.25
-0.24
-0.24
-0.245
-0.265
-0.285
-0.31
-0.35
-0.365
-0.375
-0.355
-0.345
-0.315
-0.26
-0.24
-0.24
-0.25
-0.26
-0.275
-0.255
-0.245
-0.225
-0.195
-0.16
-0.12
-0.085
-0.055
-0.015
0.01
0.025
0.045
0.055
0.065
0.07
0.075
0.085
0.09
0.115
0.125
0.13
0.11
0.1
0.085
0.08
0.09
0.09
0.08
0.1
0.12
0.145
0.17
0.18
0.16
0.12
0.095
0.075
0.07
0.09
0.1
0.12
0.14
0.165
0.185
0.185
0.16
0.14
0.11
0.095
0.075
0.075
0.1
0.12
0.175
0.22
0.245
0.275
0.275
0.265
0.265
0.265
0.285
0.31
0.34
0.375
0.415
0.45
0.465
0.49
0.485
0.475
0.46
0.42
0.38
0.365
0.365
0.4
0.41
0.39
0.37
0.33
0.31
0.295
0.275
0.265
0.23
0.21
0.155
0.13
0.11
0.1
0.11
0.125
0.145
0.145
0.14
0.145
0.14
0.155
0.155
0.155
0.145
0.135
0.14
0.165
0.18
0.22
0.295
0.415
0.575
0.755
0.945
1.125
1.31
1.475
1.635
1.8
1.925
1.99
2.025
1.99
1.9
1.71
1.425
1.105
0.765
0.52
0.33
0.215
0.18
0.17
0.175
0.18
0.175
0.13
0.085
0.055
0.035
0.035
0.025
0.035
0.045
0.055
0.065
0.055
0.06
0.055
0.05
0.05
0.04
0.025
0.02
0.02
0.045
0.065
0.075
0.075
0.065
0.045
0.04
0.005
-0.005
0.01
0.005
0.03
0.04
0.03
0.02
-0.005
-0.01
-0.03
-0.04
-0.045
-0.05
-0.035
-0.04
-0.045
-0.035
-0.055
-0.065
-0.09
-0.115
-0.125
-0.155
-0.175
-0.185
-0.19
-0.19
-0.17
-0.165
-0.17
-0.165
-0.155
-0.15
-0.15
-0.165
-0.17
-0.165
-0.16
-0.125
-0.095
-0.065
-0.035
-0.01
0.01
0.025
0.045
0.065
0.08
0.095
0.12
0.13
0.155
0.175
0.185
0.2
0.205
0.22
0.23
0.23
0.245
0.25
0.26
0.25
0.24
0.225
0.215
0.22
0.23
0.235
0.255
0.27
0.29
0.305
0.3
0.29
0.28
0.26
0.245
0.24
0.265
0.29
0.295
0.285
0.28
0.26
0.25
0.255
0.27
0.3
0.32
0.33
0.32
0.31
0.31
0.325
0.375
0.42
0.44
0.47
0.475
0.52
0.575
0.62
0.675
0.705
0.77
0.83
0.925
1.045
1.18
1.305
1.395
1.485
1.55
1.62
1.68
1.735
1.805
1.865
1.94
2.01
2.07
2.1
2.065
1.945
1.75
1.455
1.05
0.6
0.115
-0.34
-0.7
-0.955
-1.11
-1.16
-1.15
-1.065
-0.96
-0.87
-0.805
-0.75
-0.71
-0.65
-0.545
-0.425
-0.31
-0.21
-0.14
-0.06
-0.005
0.06
0.1
0.135
0.135
0.08
0.02
-0.03
-0.06
-0.05
-0.025
0.0
0.005
0.01
0.015
0.025
0.045
0.05
0.045
0.035
0.005
-0.02
-0.035
-0.04
-0.07
-0.075
-0.08
-0.05
-0.05
-0.04
-0.055
-0.075
-0.095
-0.105
-0.085
-0.055
-0.035
-0.03
-0.04
-0.055
-0.06
-0.07
-0.05
-0.035
-0.02
0.015
0.065
0.08
0.07
0.05
0.055
0.035
0.055
0.07
0.095
0.13
0.15
0.18
0.21
0.24
0.255
0.275
0.295
0.295
0.3
0.295
0.285
0.29
0.295
0.315
0.34
0.365
0.375
0.37
0.355
0.33
0.29
0.245
0.235
0.22
0.22
0.235
0.25
0.255
0.235
0.22
0.185
0.155
0.14
0.14
0.15
0.155
0.155
0.17
0.175
0.16
0.165
0.15
0.155
0.14
0.155
0.17
0.19
0.175
0.17
0.155
0.15
0.145
0.14
0.14
0.135
0.145
0.135
0.13
0.14
0.145
0.16
0.18
0.19
0.2
0.2
0.2
0.185
0.17
0.16
0.135
0.13
0.155
0.155
0.18
0.19
0.195
0.185
0.195
0.21
0.215
0.205
0.165
0.15
0.13
0.135
0.17
0.19
0.2
0.205
0.195
0.175
0.165
0.155
0.175
0.18
0.185
0.195
0.225
0.24
0.245
0.25
0.255
0.235
0.26
0.275
0.285
0.305
0.315
0.32
0.35
0.355
0.385
0.41
0.44
0.465
0.5
0.515
0.535
0.53
0.51
0.46
0.42
0.415
0.425
0.45
0.46
0.465
0.455
0.44
0.39
0.33
0.28
0.24
0.23
0.245
0.27
0.265
0.25
0.21
0.17
0.135
0.11
0.105
0.115
0.145
0.16
0.165
0.195
0.18
0.18
0.185
0.17
0.165
0.165
0.16
0.175
0.215
0.29
0.405
0.565
0.775
0.98
1.185
1.365
1.515
1.67
1.81
1.93
2.02
2.065
2.035
1.97
1.81
1.56
1.21
0.85
0.54
0.32
0.215
0.185
0.195
0.215
0.22
0.21
0.15
0.1
0.045
-0.005
-0.04
-0.045
-0.025
-0.005
0.005
0.0
-0.005
-0.01
-0.01
-0.025
-0.02
-0.065
-0.065
-0.06
-0.055
-0.045
-0.045
-0.035
-0.04
-0.045
-0.055
-0.06
-0.085
-0.085
-0.085
-0.1
-0.1
-0.095
-0.095
-0.095
-0.08
-0.07
-0.07
-0.085
-0.115
-0.16
-0.19
-0.2
-0.2
-0.205
-0.2
-0.205
-0.225
-0.235
-0.245
-0.275
-0.28
-0.295
-0.31
-0.325
-0.34
-0.355
-0.375
-0.375
-0.38
-0.37
-0.39
-0.39
-0.4
-0.405
-0.415
-0.405
-0.4
-0.405
-0.4
-0.39
-0.385
-0.365
-0.33
-0.3
-0.27
-0.245
-0.225
-0.2
-0.175
-0.14
-0.095
-0.055
-0.015
0.02
0.06
0.075
0.085
0.075
0.08
0.09
0.105
0.12
0.11
0.095
0.075
0.09
0.09
0.08
0.085
0.075
0.07
0.07
0.055
0.07
0.085
0.085
0.095
0.11
0.105
0.08
0.075
0.065
0.065
0.035
0.05
0.045
0.06
0.06
0.065
0.095
0.09
0.085
0.075
0.065
0.07
0.075
0.08
0.1
0.155
0.17
0.185
0.2
0.225
0.225
0.255
0.25
0.27
0.285
0.315
0.35
0.375
0.395
0.405
0.395
0.375
0.355
0.35
0.355
0.35
0.36
0.365
0.355
0.33
0.31
0.285
0.265
0.24
0.215
0.195
0.175
0.16
0.135
0.13
0.115
0.115
0.12
0.11
0.125
0.125
0.125
0.115
0.12
0.11
0.095
0.11
0.115
0.12
0.14
0.18
0.25
0.36
0.525
0.725
0.93
1.13
1.31
1.47
1.645
1.8
1.9
1.94
1.935
1.84
1.67
1.415
1.09
0.755
0.46
0.26
0.14
0.095
0.09
0.11
0.12
0.11
0.085
0.04
-0.01
-0.035
-0.04
-0.05
-0.06
-0.035
-0.03
-0.035
-0.03
-0.04
-0.04
-0.05
-0.055
-0.07
-0.075
-0.065
-0.06
-0.065
-0.06
-0.065
-0.06
-0.065
-0.065
-0.065
-0.07
-0.085
-0.095
-0.085
-0.105
-0.105
-0.095
-0.085
-0.095
-0.095
-0.11
-0.115
-0.13
-0.15
-0.17
-0.18
-0.19
-0.2
-0.22
-0.225
-0.22
-0.225
-0.24
-0.265
-0.29
-0.29
-0.31
-0.315
-0.325
-0.325
-0.325
-0.32
-0.325
-0.34
-0.35
-0.355
-0.37
-0.365
-0.37
-0.35
-0.335
-0.32
-0.3
-0.275
-0.245
-0.225
-0.195
-0.18
-0.16
-0.16
-0.155
-0.145
-0.11
-0.085
-0.05
-0.04
-0.005
0.005
0.035
0.03
0.03
0.035
0.025
0.005
0.015
0.025
0.03
0.035
0.045
0.04
0.05
0.05
0.035
0.04
0.045
0.065
0.08
0.085
0.105
0.135
0.165
0.205
0.255
0.31
0.37
0.42
0.495
0.565
0.67
0.795
0.91
1.01
1.06
0.985
0.795
0.455
0.005
-0.51
-0.97
-1.335
-1.59
-1.77
-1.91
-1.995
-2.065
-2.105
-2.135
-2.145
-2.115
-2.07
-1.985
-1.87
-1.735
-1.565
-1.405
-1.295
-1.205
-1.185
-1.16
-1.12
-1.045
-0.935
-0.83
-0.74
-0.67
-0.635
-0.615
-0.57
-0.53
-0.465
-0.385
-0.29
-0.17
-0.035
0.075
0.155
0.215
0.24
0.245
0.245
0.245
0.255
0.27
0.29
0.3
0.32
0.34
0.355
0.38
0.385
0.4
0.41
0.44
0.445
0.475
0.49
0.495
0.51
0.525
0.535
0.56
0.585
0.61
0.64
0.66
0.685
0.7
0.715
0.725
0.74
0.755
0.775
0.78
0.815
0.845
0.86
0.855
0.865
0.86
0.855
0.845
0.835
0.815
0.805
0.79
0.78
0.76
0.735
0.705
0.69
0.64
0.59
0.535
0.5
0.45
0.405
0.37
0.345
0.32
0.3
0.275
0.245
0.205
0.175
0.14
0.11
0.085
0.045
0.035
0.01
0.0
-0.01
-0.02
-0.025
-0.03
-0.06
-0.07
-0.08
-0.1
-0.105
-0.11
-0.11
-0.125
-0.115
-0.11
-0.115
-0.1
-0.105
-0.115
-0.115
-0.125
-0.135
-0.135
-0.13
-0.12
-0.12
-0.11
-0.12
-0.1
-0.095
-0.11
-0.11
-0.11
-0.135
-0.145
-0.15
-0.16
-0.145
-0.135
-0.14
-0.14
-0.155
-0.165
-0.165
-0.17
-0.175
-0.185
-0.18
-0.185
-0.19
-0.185
-0.185
-0.18
-0.18
-0.2
-0.19
-0.19
-0.2
-0.2
-0.2
-0.205
-0.215
-0.205
-0.2
-0.205
-0.205
-0.2
-0.21
-0.22
-0.225
-0.235
-0.225
-0.215
-0.205
-0.21
-0.205
-0.215
-0.22
-0.22
-0.215
-0.23
-0.215
-0.215
-0.215
-0.205
-0.205
-0.195
-0.19
-0.18
-0.155
-0.15
-0.125
-0.125
-0.095
-0.09
-0.065
-0.05
-0.045
-0.03
-0.02
-0.01
0.005
0.02
0.05
0.075
0.075
0.08
0.08
0.06
0.04
0.035
0.035
0.04
0.045
0.035
0.02
-0.02
-0.04
-0.075
-0.105
-0.115
-0.145
-0.145
-0.175
-0.195
-0.225
-0.245
-0.265
-0.265
-0.285
-0.29
-0.285
-0.275
-0.27
-0.26
-0.26
-0.265
-0.255
-0.27
-0.285
-0.28
-0.26
-0.24
-0.16
-0.065
0.1
0.305
0.51
0.71
0.895
1.075
1.23
1.385
1.49
1.56
1.575
1.51
1.39
1.195
0.895
0.575
0.255
0.02
-0.145
-0.255
-0.32
-0.33
-0.335
-0.35
-0.37
-0.4
-0.435
-0.465
-0.475
-0.49
-0.5
-0.495
-0.505
-0.51
-0.515
-0.515
-0.515
-0.51
-0.51
-0.525
-0.52
-0.52
-0.53
-0.54
-0.54
-0.55
-0.56
-0.55
-0.55
-0.55
-0.545
-0.545
-0.55
-0.55
-0.56
-0.58
-0.585
-0.59
-0.6
-0.595
-0.585
-0.595
-0.605
-0.605
-0.62
-0.63
-0.645
-0.67
-0.685
-0.7
-0.72
-0.735
-0.755
-0.765
-0.775
-0.8
-0.81
-0.84
-0.855
-0.88
-0.885
-0.905
-0.91
-0.915
-0.925
-0.925
-0.935
-0.95
-0.95
-0.975
-0.975
-0.965
-0.96
-0.95
-0.92
-0.89
-0.86
-0.83
-0.81
-0.79
-0.755
-0.745
-0.725
-0.69
-0.67
-0.63
-0.6
-0.58
-0.535
-0.495
-0.465
-0.455
-0.435
-0.43
-0.43
-0.425
-0.425
-0.43
-0.415
-0.42
-0.39
-0.385
-0.385
-0.385
-0.38
-0.39
-0.395
-0.4
-0.405
-0.4
-0.395
-0.4
-0.385
-0.375
-0.365
-0.36
-0.365
-0.375
-0.39
-0.4
-0.405
-0.39
-0.4
-0.39
-0.37
-0.36
-0.345
-0.355
-0.335
-0.33
-0.315
-0.31
-0.3
-0.27
-0.25
-0.24
-0.215
-0.195
-0.175
-0.15
-0.125
-0.095
-0.075
-0.06
-0.04
-0.05
-0.055
-0.065
-0.065
-0.055
-0.05
-0.04
-0.01
-0.015
-0.025
-0.025
-0.03
-0.03
-0.02
0.03
0.095
0.17
0.255
0.325
0.385
0.445
0.495
0.555
0.625
0.705
0.78
0.885
0.96
1.02
1.065
1.07
1.035
0.93
0.745
0.46
0.075
-0.375
-0.8
-1.175
-1.46
-1.675
-1.82
-1.87
-1.875
-1.825
-1.745
-1.65
-1.545
-1.465
-1.38
-1.315
-1.23
-1.135
-1.01
-0.91
-0.79
-0.715
-0.64
-0.605
-0.6
-0.61
-0.595
-0.6
-0.605
-0.595
-0.575
-0.575
-0.56
-0.565
-0.575
-0.58
-0.585
-0.59
-0.59
-0.575
-0.58
-0.575
-0.56
-0.565
-0.555
-0.57
-0.58
-0.585
-0.585
-0.58
-0.575
-0.575
-0.565
-0.55
-0.535
-0.54
-0.53
-0.535
-0.545
-0.545
-0.555
-0.55
-0.565
-0.55
-0.545
-0.54
-0.525
-0.515
-0.505
-0.5
-0.49
-0.485
-0.47
-0.445
-0.435
-0.415
-0.415
-0.39
-0.37
-0.36
-0.345
-0.34
-0.32
-0.32
-0.31
-0.29
-0.27
-0.245
-0.235
-0.225
-0.215
-0.215
-0.23
-0.245
-0.25
-0.27
-0.3
-0.305
-0.3
-0.32
-0.31
-0.315
-0.32
-0.345
-0.34
-0.37
-0.385
-0.405
-0.435
-0.435
-0.44
-0.45
-0.45
-0.44
-0.445
-0.45
-0.44
-0.445
-0.45
-0.45
-0.45
-0.47
-0.465
-0.46
-0.47
-0.46
-0.45
-0.46
-0.465
-0.465
-0.46
-0.465
-0.465
-0.46
-0.46
-0.455
-0.445
-0.45
-0.46
-0.46
-0.445
-0.455
-0.465
-0.45
-0.455
-0.445
-0.455
-0.45
-0.44
-0.435
-0.43
-0.44
-0.43
-0.41
-0.4
-0.39
-0.37
-0.365
-0.345
-0.31
-0.29
-0.28
-0.285
-0.275
-0.265
-0.245
-0.215
-0.19
-0.16
-0.145
-0.15
-0.175
-0.18
-0.18
-0.185
-0.18
-0.165
-0.17
-0.175
-0.21
-0.245
-0.28
-0.32
-0.345
-0.385
-0.39
-0.405
-0.415
-0.435
-0.45
-0.465
-0.475
-0.495
-0.49
-0.485
-0.48
-0.475
-0.46
-0.455
-0.46
-0.455
-0.47
-0.47
-0.465
-0.44
-0.4
-0.3
-0.17
0.015
0.235
0.465
0.68
0.87
1.05
1.215
1.35
1.45
1.485
1.475
1.385
1.225
0.99
0.66
0.3
-0.005
-0.235
-0.35
-0.41
-0.44
-0.445
-0.445
-0.47
-0.49
-0.54
-0.58
-0.6
-0.625
-0.62
-0.63
-0.63
-0.63
-0.63
-0.625
-0.63
-0.63
-0.63
-0.635
-0.64
-0.645
-0.655
-0.665
-0.665
-0.665
-0.675
-0.67
-0.665
-0.665
-0.665
-0.655
-0.685
-0.675
-0.685
-0.69
-0.7
-0.695
-0.71
-0.71
-0.715
-0.725
-0.72
-0.725
-0.735
-0.75
-0.77
-0.795
-0.805
-0.815
-0.82
-0.82
-0.84
-0.84
-0.85
-0.875
-0.885
-0.905
-0.92
-0.925
-0.955
-0.965
-0.96
-0.965
-0.965
-0.96
-0.96
-0.95
-0.955
-0.945
-0.935
-0.93
-0.91
-0.885
-0.855
-0.82
-0.79
-0.76
-0.73
-0.705
-0.69
-0.66
-0.65
-0.625
-0.61
-0.585
-0.56
-0.54
-0.515
-0.5
-0.485
-0.49
-0.475
-0.46
-0.475
-0.475
-0.47
-0.47
-0.465
-0.465
-0.46
-0.44
-0.425
-0.43
-0.43
-0.43
-0.435
-0.44
-0.44
-0.435
-0.43
-0.435
-0.425
-0.425
-0.43
-0.425
-0.425
-0.43
-0.425
-0.415
-0.415
-0.42
-0.42
-0.415
-0.41
-0.405
-0.405
-0.395
-0.395
-0.38
-0.36
-0.365
-0.365
-0.35
-0.345
-0.32
-0.305
-0.295
-0.27
-0.27
-0.255
-0.255
-0.23
-0.22
-0.195
-0.17
-0.15
-0.115
-0.1
-0.1
-0.1
-0.13
-0.15
-0.145
-0.145
-0.13
-0.135
-0.165
-0.175
-0.205
-0.235
-0.27
-0.295
-0.325
-0.35
-0.365
-0.37
-0.39
-0.395
-0.42
-0.43
-0.42
-0.435
-0.44
-0.42
-0.415
-0.405
-0.395
-0.395
-0.395
-0.405
-0.41
-0.405
-0.39
-0.345
-0.265
-0.125
0.035
0.22
0.45
0.665
0.85
1.015
1.165
1.315
1.44
1.515
1.53
1.51
1.39
1.205
0.93
0.59
0.255
-0.04
-0.235
-0.33
-0.37
-0.385
-0.365
-0.37
-0.385
-0.415
-0.45
-0.5
-0.535
-0.535
-0.54
-0.54
-0.525
-0.53
-0.53
-0.535
-0.525
-0.55
-0.545
-0.575
-0.575
-0.575
-0.575
-0.57
-0.56
-0.55
-0.55
-0.555
-0.535
-0.545
-0.55
-0.55
-0.565
-0.59
-0.575
-0.585
-0.59
-0.565
-0.57
-0.56
-0.555
-0.565
-0.585
-0.59
-0.61
-0.62
-0.625
-0.635
-0.635
-0.64
-0.655
-0.65
-0.675
-0.695
-0.71
-0.72
-0.745
-0.755
-0.77
-0.775
-0.775
-0.775
-0.765
-0.765
-0.755
-0.765
-0.76
-0.765
-0.77
-0.745
-0.735
-0.705
-0.69
-0.655
-0.625
-0.59
-0.57
-0.555
-0.54
-0.53
-0.505
-0.485
-0.46
-0.43
-0.41
-0.395
-0.37
-0.36
-0.36
-0.34
-0.34
-0.34
-0.335
-0.33
-0.345
-0.345
-0.33
-0.33
-0.335
-0.325
-0.325
-0.325
-0.33
-0.32
-0.34
-0.335
-0.34
-0.33
-0.34
-0.335
-0.33
-0.315
-0.305
-0.305
-0.31
-0.31
-0.32
-0.335
-0.335
-0.335
-0.335
-0.32
-0.305
-0.31
-0.285
-0.29
-0.29
-0.29
-0.28
-0.27
-0.255
-0.24
-0.22
-0.195
-0.18
-0.16
-0.15
-0.14
-0.14
-0.115
-0.105
-0.08
-0.055
-0.02
0.005
0.015
-0.005
-0.015
-0.035
-0.05
-0.045
-0.05
-0.04
-0.04
-0.05
-0.06
-0.09
-0.105
-0.145
-0.145
-0.17
-0.205
-0.225
-0.255
-0.27
-0.29
-0.31
-0.33
-0.34
-0.34
-0.335
-0.33
-0.335
-0.32
-0.325
-0.315
-0.32
-0.32
-0.325
-0.32
-0.325
-0.31
-0.295
-0.25
-0.19
-0.1
0.045
0.235
0.42
0.61
0.79
0.95
1.105
1.27
1.425
1.54
1.6
1.585
1.545
1.415
1.22
0.97
0.655
0.345
0.105
-0.08
-0.18
-0.225
-0.275
-0.28
-0.285
-0.305
-0.335
-0.385
-0.435
-0.465
-0.465
-0.475
-0.465
-0.455
-0.45
-0.45
-0.46
-0.48
-0.465
-0.48
-0.52
-0.51
-0.515
-0.51
-0.485
-0.49
-0.48
-0.495
-0.5
-0.51
-0.54
-0.545
-0.54
-0.535
-0.53
-0.52
-0.51
-0.505
-0.505
-0.515
-0.52
-0.53
-0.535
-0.54
-0.555
-0.56
-0.565
-0.56
-0.57
-0.575
-0.59
-0.61
-0.62
-0.63
-0.645
-0.665
-0.685
-0.69
-0.695
-0.71
-0.71
-0.705
-0.72
-0.725
-0.735
-0.745
-0.75
-0.77
-0.765
-0.755
-0.74
-0.735
-0.72
-0.71
-0.7
-0.675
-0.65
-0.63
-0.61
-0.595
-0.575
-0.545
-0.525
-0.495
-0.475
-0.44
-0.425
-0.39
-0.38
-0.375
-0.37
-0.36
-0.355
-0.345
-0.335
-0.32
-0.32
-0.305
-0.305
-0.305
-0.305
-0.31
-0.29
-0.3
-0.31
-0.305
-0.32
-0.305
-0.3
-0.285
-0.285
-0.29
-0.285
-0.295
-0.305
-0.305
-0.31
-0.31
-0.31
-0.295
-0.285
-0.27
-0.26
-0.275
-0.26
-0.27
-0.28
-0.28
-0.29
-0.26
-0.245
-0.215
-0.185
-0.14
-0.1
-0.075
-0.04
-0.025
-0.035
-0.025
-0.01
0.015
0.065
0.13
0.195
0.255
0.295
0.33
0.365
0.425
0.495
0.585
0.665
0.765
0.825
0.91
0.97
1.045
1.12
1.18
1.245
1.295
1.335
1.34
1.31
1.225
1.065
0.82
0.475
0.06
-0.39
-0.825
-1.2
-1.47
-1.66
-1.745
-1.735
-1.66
-1.555
-1.42
-1.32
-1.245
-1.185
-1.115
-1.025
-0.935
-0.845
-0.745
-0.64
-0.565
-0.515
-0.5
-0.5
-0.495
-0.495
-0.49
-0.485
-0.495
-0.48
-0.475
-0.47
-0.47
-0.485
-0.47
-0.47
-0.47
-0.475
-0.465
-0.475
-0.455
-0.47
-0.47
-0.465
-0.455
-0.46
-0.475
-0.47
-0.465
-0.47
-0.465
-0.465
-0.475
-0.485
-0.48
-0.475
-0.485
-0.465
-0.455
-0.45
-0.435
-0.425
-0.41
-0.405
-0.39
-0.395
-0.395
-0.375
-0.36
-0.345
-0.33
-0.295
-0.265
-0.245
-0.235
-0.21
-0.215
-0.195
-0.195
-0.185
-0.17
-0.155
-0.135
-0.13
-0.115
-0.115
-0.13
-0.135
-0.13
-0.135
-0.155
-0.165
-0.175
-0.18
-0.16
-0.155
-0.14
-0.135
-0.12
-0.105
-0.095
-0.065
-0.03
0.015
0.065
0.125
0.21
0.28
0.355
0.415
0.45
0.465
0.415
0.3
0.095
-0.175
-0.5
-0.83
-1.125
-1.405
-1.635
-1.855
-2.05
-2.225
-2.405
-2.54
-2.625
-2.66
-2.65
-2.615
-2.54
-2.465
-2.36
-2.29
-2.18
-2.06
-1.95
-1.85
-1.745
-1.69
-1.625
-1.575
-1.51
-1.44
-1.375
-1.31
-1.25
-1.205
-1.145
-1.09
-1.02
-0.93
-0.805
-0.675
-0.525
-0.37
-0.23
-0.12
-0.04
0.02
0.05
0.075
0.115
0.135
0.165
0.19
0.215
0.26
0.29
0.305
0.315
0.33
0.325
0.34
0.345
0.36
0.38
0.415
0.435
0.46
0.485
0.51
0.505
0.52
0.53
0.545
0.55
0.57
0.6
0.62
0.645
0.675
0.695
0.73
0.745
0.765
0.785
0.805
0.815
0.83
0.845
0.86
0.86
0.865
0.865
0.865
0.85
0.84
0.815
0.805
0.78
0.755
0.71
0.685
0.65
0.62
0.58
0.555
0.515
0.49
0.445
0.425
0.38
0.325
0.28
0.23
0.195
0.175
0.145
0.115
0.095
0.045
0.03
0.005
-0.035
-0.065
-0.08
-0.09
-0.105
-0.105
-0.1
-0.115
-0.12
-0.125
-0.135
-0.145
-0.145
-0.14
-0.145
-0.14
-0.14
-0.135
-0.14
-0.135
-0.145
-0.145
-0.155
-0.155
-0.17
-0.18
-0.17
-0.17
-0.175
-0.175
-0.17
-0.16
-0.17
-0.145
-0.18
-0.185
-0.19
-0.205
-0.21
-0.215
-0.21
-0.205
-0.205
-0.2
-0.195
-0.22
-0.23
-0.235
-0.235
-0.24
-0.235
-0.245
-0.26
-0.265
-0.245
-0.245
-0.25
-0.26
-0.26
-0.27
-0.26
-0.255
-0.255
-0.26
-0.26
-0.275
-0.275
-0.275
-0.29
-0.285
-0.29
-0.3
-0.295
-0.305
-0.3
-0.285
-0.295
-0.29
-0.3
-0.295
-0.305
-0.31
-0.305
-0.305
-0.3
-0.3
-0.29
-0.285
-0.285
-0.28
-0.26
-0.26
-0.245
-0.25
-0.255
-0.275
-0.275
-0.285
-0.31
-0.32
-0.305
-0.3
-0.28
-0.255
-0.24
-0.24
-0.25
-0.26
-0.28
-0.295
-0.31
-0.3
-0.29
-0.285
-0.265
-0.245
-0.235
-0.235
-0.255
-0.29
-0.315
-0.32
-0.325
-0.28
-0.24
-0.215
-0.2
-0.19
-0.205
-0.195
-0.22
-0.245
-0.26
-0.295
-0.295
-0.29
-0.25
-0.215
-0.205
-0.195
-0.185
-0.18
-0.175
-0.15
-0.155
-0.115
-0.085
-0.04
0.005
0.06
0.12
0.15
0.125
0.085
-0.005
-0.095
-0.14
-0.15
-0.1
-0.03
0.045
0.075
0.07
0.025
-0.055
-0.14
-0.23
-0.31
-0.35
-0.36
-0.35
-0.33
-0.305
-0.29
-0.29
-0.3
-0.31
-0.3
-0.315
-0.34
-0.35
-0.38
-0.39
-0.385
-0.355
-0.305
-0.235
-0.135
-0.04
0.12
0.285
0.465
0.66
0.87
1.105
1.33
1.535
1.66
1.695
1.635
1.48
1.24
0.9
0.54
0.175
-0.105
-0.265
-0.37
-0.405
-0.405
-0.395
-0.39
-0.415
-0.435
-0.46
-0.48
-0.485
-0.48
-0.485
-0.495
-0.505
-0.54
-0.56
-0.56
-0.56
-0.57
-0.59
-0.61
-0.61
-0.595
-0.57
-0.555
-0.55
-0.56
-0.56
-0.555
-0.545
-0.545
-0.58
-0.64
-0.69
-0.735
-0.74
-0.685
-0.615
-0.565
-0.525
-0.525
-0.58
-0.615
-0.685
-0.715
-0.73
-0.75
-0.76
-0.76
-0.755
-0.735
-0.71
-0.69
-0.695
-0.715
-0.74
-0.775
-0.8
-0.815
-0.835
-0.855
-0.865
-0.87
-0.87
-0.885
-0.895
-0.905
-0.925
-0.95
-0.955
-0.95
-0.94
-0.925
-0.91
-0.9
-0.895
-0.895
-0.905
-0.905
-0.905
-0.895
-0.855
-0.815
-0.77
-0.725
-0.71
-0.695
-0.68
-0.64
-0.6
-0.54
-0.5
-0.455
-0.415
-0.395
-0.385
-0.39
-0.4
-0.39
-0.35
-0.31
-0.29
-0.265
-0.25
-0.21
-0.21
-0.22
-0.24
-0.265
-0.235
-0.195
-0.135
-0.11
-0.1
-0.075
-0.08
-0.08
-0.08
-0.065
-0.03
0.045
0.13
0.21
0.28
0.37
0.48
0.61
0.74
0.86
0.99
1.135
1.26
1.395
1.515
1.595
1.68
1.755
1.815
1.85
1.825
1.73
1.53
1.195
0.805
0.37
-0.035
-0.375
-0.635
-0.8
-0.88
-0.9
-0.875
-0.825
-0.765
-0.71
-0.625
-0.53
-0.41
-0.295
-0.215
-0.175
-0.18
-0.21
-0.235
-0.27
-0.295
-0.315
-0.305
-0.295
-0.29
-0.3
-0.31
-0.34
-0.37
-0.395
-0.405
-0.41
-0.41
-0.43
-0.43
-0.41
-0.39
-0.39
-0.395
-0.39
-0.39
-0.36
-0.35
-0.36
-0.375
-0.425
-0.45
-0.485
-0.48
-0.445
-0.415
-0.365
-0.34
-0.35
-0.38
-0.405
-0.435
-0.435
-0.435
-0.45
-0.44
-0.425
-0.4
-0.365
-0.34
-0.335
-0.355
-0.355
-0.37
-0.38
-0.365
-0.345
-0.305
-0.255
-0.195
-0.15
-0.115
-0.125
-0.14
-0.15
-0.14
-0.115
-0.095
-0.065
-0.04
-0.055
-0.065
-0.065
-0.095
-0.08
-0.07
-0.075
-0.055
-0.055
-0.055
-0.075
-0.095
-0.095
-0.08
-0.07
-0.065
-0.06
-0.08
-0.075
-0.055
-0.035
-0.03
-0.075
-0.125
-0.185
-0.195
-0.17
-0.13
-0.095
-0.1
-0.105
-0.12
-0.13
-0.12
-0.12
-0.095
-0.095
-0.09
-0.085
-0.09
-0.08
-0.085
-0.1
-0.1
-0.115
-0.11
-0.09
-0.07
-0.05
-0.07
-0.085
-0.095
-0.095
-0.07
-0.065
-0.05
-0.045
-0.04
-0.05
-0.06
-0.09
-0.1
-0.11
-0.11
-0.1
-0.085
-0.09
-0.09
-0.085
-0.065
-0.05
-0.03
-0.02
-0.015
-0.025
-0.035
-0.04
-0.09
-0.105
-0.12
-0.115
-0.095
-0.05
-0.02
0.0
-0.01
-0.05
-0.075
-0.075
-0.075
-0.065
-0.065
-0.06
-0.07
-0.065
-0.06
-0.035
-0.015
-0.005
-0.005
-0.005
-0.01
-0.04
-0.07
-0.075
-0.08
-0.05
-0.015
-0.01
0.0
0.005
0.015
0.02
0.03
0.045
0.055
0.08
0.105
0.115
0.16
0.195
0.215
0.22
0.165
0.145
0.155
0.195
0.24
0.285
0.31
0.315
0.31
0.285
0.26
0.255
0.24
0.24
0.255
0.255
0.26
0.265
0.25
0.2
0.175
0.155
0.145
0.135
0.115
0.095
0.085
0.075
0.075
0.075
0.08
0.065
0.03
-0.005
-0.03
-0.03
-0.005
0.015
0.04
0.035
0.025
0.03
0.035
0.045
0.075
0.15
0.25
0.385
0.54
0.715
0.9
1.085
1.285
1.475
1.665
1.845
1.97
2.03
2.035
1.98
1.825
1.57
1.225
0.86
0.545
0.295
0.165
0.125
0.1
0.09
0.055
0.0
-0.05
-0.085
-0.085
-0.085
-0.08
-0.115
-0.125
-0.145
-0.145
-0.15
-0.155
-0.12
-0.095
-0.08
-0.095
-0.13
-0.16
-0.19
-0.18
-0.155
-0.14
-0.165
-0.195
-0.22
-0.225
-0.2
-0.17
-0.14
-0.13
-0.14
-0.16
-0.185
-0.2
-0.225
-0.24
-0.235
-0.215
-0.19
-0.2
-0.2
-0.225
-0.24
-0.255
-0.28
-0.305
-0.335
-0.345
-0.33
-0.325
-0.325
-0.36
-0.4
-0.455
-0.5
-0.505
-0.485
-0.475
-0.47
-0.48
-0.515
-0.54
-0.56
-0.57
-0.555
-0.535
-0.535
-0.51
-0.495
-0.48
-0.455
-0.44
-0.435
-0.44
-0.43
-0.39
-0.355
-0.335
-0.315
-0.3
-0.27
-0.225
-0.18
-0.14
-0.12
-0.1
-0.07
-0.05
-0.035
-0.025
-0.005
0.005
0.005
0.015
0.04
0.06
0.07
0.08
0.085
0.075
0.075
0.095
0.105
0.105
0.11
0.1
0.1
0.125
0.13
0.12
0.11
0.105
0.105
0.09
0.1
0.105
0.125
0.12
0.12
0.115
0.105
0.1
0.105
0.11
0.125
0.135
0.125
0.125
0.135
0.155
0.18
0.22
0.25
0.285
0.32
0.305
0.265
0.215
0.21
0.25
0.31
0.37
0.4
0.42
0.41
0.385
0.33
0.3
0.3
0.305
0.325
0.325
0.305
0.295
0.275
0.26
0.255
0.225
0.185
0.13
0.105
0.09
0.095
0.105
0.095
0.08
0.04
0.035
0.035
0.06
0.07
0.085
0.09
0.085
0.07
0.065
0.06
0.065
0.09
0.15
0.25
0.39
0.585
0.79
0.985
1.15
1.335
1.5
1.665
1.81
1.925
1.98
1.995
1.945
1.825
1.625
1.32
0.975
0.64
0.37
0.2
0.125
0.11
0.11
0.08
0.03
-0.02
-0.04
-0.04
-0.02
-0.01
-0.025
-0.04
-0.04
-0.04
-0.03
-0.04
-0.065
-0.095
-0.1
-0.09
-0.05
-0.035
-0.03
-0.05
-0.085
-0.115
-0.14
-0.155
-0.15
-0.125
-0.1
-0.08
-0.07
-0.1
-0.115
-0.135
-0.14
-0.145
-0.13
-0.12
-0.115
-0.105
-0.12
-0.13
-0.135
-0.13
-0.135
-0.145
-0.17
-0.2
-0.205
-0.21
-0.215
-0.225
-0.24
-0.255
-0.26
-0.265
-0.29
-0.31
-0.34
-0.345
-0.34
-0.35
-0.365
-0.375
-0.39
-0.41
-0.41
-0.41
-0.385
-0.365
-0.325
-0.3
-0.27
-0.245
-0.205
-0.19
-0.175
-0.17
-0.165
-0.16
-0.155
-0.13
-0.085
-0.04
0.015
0.03
0.03
0.02
0.035
0.035
0.06
0.045
0.035
0.055
0.07
0.095
0.1
0.12
0.115
0.11
0.095
0.075
0.07
0.06
0.09
0.095
0.09
0.07
0.06
0.06
0.065
0.075
0.085
0.095
0.095
0.08
0.07
0.055
0.055
0.065
0.06
0.075
0.08
0.085
0.08
0.085
0.095
0.1
0.13
0.155
0.165
0.18
0.205
0.225
0.235
0.255
0.26
0.265
0.265
0.265
0.295
0.325
0.355
0.385
0.385
0.38
0.345
0.32
0.315
0.305
0.31
0.345
0.36
0.34
0.295
0.25
0.21
0.21
0.22
0.225
0.2
0.14
0.09
0.065
0.075
0.095
0.115
0.1
0.09
0.065
0.055
0.055
0.065
0.08
0.09
0.075
0.055
0.045
0.04
0.05
0.08
0.14
0.215
0.33
0.495
0.695
0.905
1.105
1.285
1.475
1.645
1.795
1.905
1.955
1.95
1.865
1.66
1.37
1.0
0.645
0.365
0.18
0.065
0.04
0.03
0.03
0.02
-0.02
-0.06
-0.105
-0.14
-0.165
-0.155
-0.135
-0.13
-0.12
-0.1
-0.1
-0.12
-0.14
-0.15
-0.155
-0.145
-0.13
-0.115
-0.12
-0.095
-0.11
-0.125
-0.16
-0.175
-0.185
-0.185
-0.17
-0.18
-0.185
-0.185
-0.185
-0.175
-0.165
-0.155
-0.17
-0.2
-0.23
-0.235
-0.225
-0.21
-0.21
-0.22
-0.26
-0.275
-0.305
-0.32
-0.335
-0.355
-0.34
-0.355
-0.35
-0.36
-0.36
-0.395
-0.415
-0.43
-0.445
-0.435
-0.43
-0.41
-0.39
-0.395
-0.395
-0.385
-0.36
-0.335
-0.315
-0.3
-0.28
-0.255
-0.24
-0.225
-0.18
-0.145
-0.115
-0.085
-0.06
-0.05
-0.04
-0.035
-0.02
-0.02
0.005
0.02
0.035
0.045
0.055
0.035
0.0
-0.015
-0.005
0.03
0.06
0.075
0.075
0.07
0.055
0.035
0.03
0.015
0.015
0.015
0.015
0.05
0.045
0.04
0.04
0.03
0.03
0.04
0.055
0.05
0.055
0.065
0.065
0.08
0.075
0.06
0.045
0.025
0.025
0.05
0.085
0.09
0.105
0.115
0.13
0.135
0.15
0.175
0.215
0.24
0.265
0.28
0.3
0.31
0.315
0.33
0.315
0.3
0.27
0.28
0.27
0.295
0.31
0.32
0.295
0.255
0.22
0.205
0.18
0.17
0.145
0.105
0.065
0.04
0.025
0.015
0.005
-0.005
-0.015
-0.01
-0.01
-0.015
-0.005
-0.01
-0.005
0.0
0.02
0.02
0.025
0.015
0.005
0.005
0.035
0.1
0.235
0.395
0.58
0.775
0.975
1.15
1.325
1.505
1.65
1.785
1.87
1.92
1.88
1.785
1.615
1.325
0.965
0.63
0.325
0.145
0.05
0.01
0.0
0.015
0.02
0.02
-0.015
-0.075
-0.14
-0.155
-0.18
-0.18
-0.19
-0.195
-0.19
-0.185
-0.18
-0.17
-0.165
-0.165
-0.165
-0.175
-0.18
-0.185
-0.18
-0.16
-0.165
-0.175
-0.215
-0.22
-0.22
-0.22
-0.205
-0.2
-0.195
-0.195
-0.19
-0.205
-0.21
-0.225
-0.235
-0.255
-0.27
-0.29
-0.29
-0.29
-0.29
-0.295
-0.32
-0.355
-0.39
-0.395
-0.405
-0.38
-0.37
-0.37
-0.38
-0.42
-0.445
-0.465
-0.475
-0.455
-0.47
-0.46
-0.465
-0.45
-0.445
-0.45
-0.46
-0.46
-0.46
-0.44
-0.415
-0.39
-0.345
-0.3
-0.29
-0.245
-0.205
-0.175
-0.145
-0.15
-0.16
-0.145
-0.145
-0.11
-0.09
-0.06
-0.04
-0.02
-0.01
-0.015
-0.02
-0.035
-0.035
-0.03
-0.02
-0.005
0.01
0.01
-0.005
-0.02
-0.035
-0.03
-0.01
0.01
0.015
0.005
-0.01
-0.03
-0.04
-0.04
-0.04
-0.035
-0.015
-0.025
0.01
0.02
0.01
0.0
-0.01
-0.02
-0.02
-0.015
0.01
0.06
0.09
0.105
0.095
0.08
0.085
0.08
0.085
0.095
0.125
0.135
0.155
0.19
0.215
0.235
0.275
0.29
0.3
0.29
0.275
0.26
0.255
0.26
0.295
0.3
0.315
0.295
0.265
0.225
0.205
0.185
0.16
0.12
0.1
0.075
0.065
0.075
0.065
0.065
0.05
0.04
0.025
0.005
-0.005
-0.03
-0.035
-0.03
-0.015
0.015
0.045
0.06
0.07
0.055
0.035
0.01
0.04
0.095
0.2
0.355
0.55
0.73
0.93
1.095
1.245
1.39
1.53
1.65
1.75
1.8
1.8
1.765
1.695
1.565
1.355
1.08
0.78
0.49
0.285
0.16
0.1
0.085
0.085
0.07
0.07
0.04
0.02
-0.035
-0.075
-0.1
-0.13
-0.14
-0.125
-0.11
-0.09
-0.08
-0.08
-0.09
-0.1
-0.11
-0.12
-0.12
-0.135
-0.13
-0.135
-0.135
-0.13
-0.125
-0.115
-0.115
-0.105
-0.125
-0.135
-0.16
-0.185
-0.205
-0.205
-0.19
-0.165
-0.15
-0.155
-0.155
-0.165
-0.18
-0.19
-0.215
-0.245
-0.265
-0.275
-0.275
-0.27
-0.275
-0.27
-0.285
-0.295
-0.32
-0.32
-0.35
-0.36
-0.39
-0.415
-0.425
-0.42
-0.415
-0.41
-0.42
-0.42
-0.45
-0.445
-0.445
-0.435
-0.435
-0.42
-0.4
-0.395
-0.385
-0.375
-0.34
-0.305
-0.26
-0.225
-0.185
-0.16
-0.135
-0.125
-0.115
-0.11
-0.095
-0.1
-0.08
-0.065
-0.055
-0.03
-0.03
-0.035
-0.04
-0.04
-0.03
-0.025
-0.01
0.01
0.03
0.04
0.05
0.08
0.105
0.13
0.16
0.21
0.255
0.315
0.365
0.435
0.515
0.625
0.75
0.84
0.88
0.83
0.66
0.405
0.04
-0.35
-0.745
-1.1
-1.375
-1.625
-1.815
-1.965
-2.07
-2.155
-2.23
-2.26
-2.27
-2.255
-2.2
-2.14
-2.06
-1.96
-1.87
-1.735
-1.605
-1.48
-1.375
-1.28
-1.19
-1.105
-1.03
-0.935
-0.85
-0.72
-0.605
-0.5
-0.405
-0.345
-0.275
-0.19
-0.105
0.02
0.15
0.25
0.34
0.385
0.395
0.395
0.365
0.35
0.325
0.325
0.355
0.365
0.405
0.425
0.44
0.46
0.465
0.48
0.475
0.485
0.515
0.53
0.56
0.585
0.595
0.615
0.63
0.64
0.655
0.67
0.68
0.7
0.705
0.715
0.755
0.765
0.795
0.835
0.85
0.875
0.88
0.88
0.895
0.88
0.875
0.885
0.895
0.92
0.92
0.925
0.925
0.905
0.875
0.85
0.81
0.785
0.755
0.725
0.69
0.675
0.64
0.6
0.58
0.555
0.52
0.49
0.465
0.44
0.395
0.37
0.31
0.275
0.255
0.25
0.24
0.22
0.18
0.155
0.15
0.12
0.1
0.075
0.065
0.055
0.05
0.045
0.03
0.02
0.01
0.015
0.005
0.005
-0.005
-0.015
-0.02
-0.015
-0.025
-0.015
-0.015
-0.015
-0.015
-0.02
-0.03
-0.025
-0.03
-0.035
-0.045
-0.035
-0.035
-0.045
-0.03
-0.035
-0.045
-0.06
-0.075
-0.075
-0.085
-0.09
-0.085
-0.085
-0.08
-0.075
-0.08
-0.065
-0.075
-0.08
-0.1
-0.115
-0.12
-0.13
-0.135
-0.135
-0.13
-0.135
-0.115
-0.12
-0.11
-0.115
-0.115
-0.12
-0.125
-0.13
-0.13
-0.145
-0.155
-0.155
-0.15
-0.145
-0.135
-0.145
-0.145
-0.15
-0.16
-0.175
-0.18
-0.185
-0.2
-0.21
-0.2
-0.175
-0.17
-0.17
-0.16
-0.17
-0.17
-0.185
-0.175
-0.185
-0.19
-0.165
-0.155
-0.16
-0.17
-0.16
-0.17
-0.165
-0.155
-0.145
-0.115
-0.09
-0.07
-0.045
-0.035
-0.02
-0.025
-0.015
-0.005
0.005
0.02
0.045
0.07
0.095
0.11
0.095
0.08
0.055
0.03
0.01
0.02
0.03
0.025
-0.005
-0.025
-0.065
-0.07
-0.095
-0.11
-0.13
-0.15
-0.18
-0.205
-0.225
-0.26
-0.27
-0.275
-0.27
-0.28
-0.275
-0.275
-0.275
-0.27
-0.27
-0.265
-0.255
-0.245
-0.25
-0.255
-0.265
-0.25
-0.185
-0.07
0.085
0.27
0.475
0.67
0.855
1.015
1.17
1.315
1.415
1.46
1.46
1.38
1.25
1.04
0.76
0.45
0.175
-0.035
-0.18
-0.265
-0.305
-0.305
-0.305
-0.33
-0.345
-0.395
-0.44
-0.48
-0.5
-0.495
-0.515
-0.495
-0.5
-0.49
-0.48
-0.485
-0.465
-0.465
-0.475
-0.49
-0.5
-0.525
-0.55
-0.56
-0.56
-0.555
-0.545
-0.525
-0.52
-0.525
-0.525
-0.54
-0.54
-0.545
-0.565
-0.565
-0.565
-0.555
-0.565
-0.565
-0.57
-0.57
-0.58
-0.585
-0.605
-0.62
-0.64
-0.64
-0.665
-0.685
-0.71
-0.715
-0.71
-0.74
-0.745
-0.77
-0.795
-0.815
-0.835
-0.85
-0.865
-0.875
-0.895
-0.9
-0.905
-0.91
-0.92
-0.93
-0.935
-0.945
-0.945
-0.945
-0.935
-0.94
-0.93
-0.92
-0.87
-0.87
-0.84
-0.82
-0.795
-0.775
-0.745
-0.715
-0.7
-0.665
-0.635
-0.605
-0.57
-0.545
-0.505
-0.495
-0.49
-0.475
-0.46
-0.455
-0.465
-0.445
-0.44
-0.42
-0.415
-0.4
-0.4
-0.4
-0.405
-0.41
-0.42
-0.425
-0.42
-0.405
-0.4
-0.39
-0.39
-0.385
-0.38
-0.4
-0.41
-0.425
-0.43
-0.435
-0.435
-0.425
-0.415
-0.41
-0.39
-0.39
-0.38
-0.375
-0.38
-0.365
-0.37
-0.365
-0.365
-0.36
-0.34
-0.32
-0.31
-0.295
-0.285
-0.275
-0.28
-0.27
-0.275
-0.245
-0.215
-0.165
-0.12
-0.1
-0.09
-0.11
-0.135
-0.18
-0.19
-0.2
-0.195
-0.18
-0.16
-0.16
-0.17
-0.19
-0.235
-0.285
-0.33
-0.35
-0.375
-0.385
-0.39
-0.405
-0.415
-0.44
-0.45
-0.455
-0.46
-0.455
-0.455
-0.46
-0.475
-0.49
-0.505
-0.5
-0.49
-0.475
-0.46
-0.45
-0.44
-0.44
-0.41
-0.345
-0.255
-0.125
0.055
0.27
0.47
0.65
0.81
0.97
1.12
1.23
1.315
1.35
1.32
1.225
1.075
0.85
0.545
0.22
-0.075
-0.28
-0.4
-0.445
-0.45
-0.435
-0.445
-0.47
-0.51
-0.56
-0.6
-0.625
-0.63
-0.63
-0.63
-0.635
-0.635
-0.64
-0.65
-0.645
-0.655
-0.665
-0.665
-0.675
-0.69
-0.69
-0.68
-0.67
-0.665
-0.68
-0.72
-0.755
-0.78
-0.79
-0.78
-0.75
-0.72
-0.72
-0.72
-0.745
-0.755
-0.78
-0.775
-0.755
-0.735
-0.73
-0.725
-0.765
-0.805
-0.84
-0.86
-0.87
-0.875
-0.885
-0.89
-0.92
-0.935
-0.94
-0.955
-0.94
-0.91
-0.91
-0.905
-0.935
-0.94
-0.975
-0.97
-1.0
-1.005
-1.02
-1.015
-1.025
-1.025
-0.995
-0.965
-0.925
-0.89
-0.86
-0.845
-0.825
-0.825
-0.805
-0.8
-0.77
-0.74
-0.7
-0.66
-0.63
-0.63
-0.635
-0.65
-0.66
-0.65
-0.63
-0.61
-0.595
-0.605
-0.615
-0.605
-0.59
-0.555
-0.54
-0.545
-0.565
-0.59
-0.63
-0.66
-0.675
-0.675
-0.64
-0.605
-0.575
-0.53
-0.525
-0.525
-0.545
-0.595
-0.625
-0.66
-0.67
-0.665
-0.635
-0.605
-0.6
-0.58
-0.595
-0.61
-0.615
-0.605
-0.58
-0.555
-0.54
-0.545
-0.52
-0.535
-0.55
-0.535
-0.525
-0.495
-0.475
-0.44
-0.4
-0.36
-0.325
-0.29
-0.28
-0.275
-0.29
-0.31
-0.335
-0.335
-0.345
-0.32
-0.305
-0.31
-0.33
-0.355
-0.37
-0.4
-0.44
-0.475
-0.515
-0.545
-0.55
-0.545
-0.54
-0.56
-0.575
-0.59
-0.61
-0.62
-0.62
-0.625
-0.625
-0.615
-0.595
-0.595
-0.58
-0.59
-0.585
-0.58
-0.545
-0.49
-0.38
-0.23
-0.065
0.115
0.295
0.47
0.64
0.805
0.98
1.145
1.25
1.27
1.255
1.16
0.995
0.775
0.48
0.2
-0.07
-0.29
-0.445
-0.53
-0.565
-0.58
-0.585
-0.605
-0.65
-0.7
-0.74
-0.765
-0.76
-0.75
-0.735
-0.73
-0.73
-0.72
-0.725
-0.74
-0.73
-0.745
-0.755
-0.77
-0.78
-0.785
-0.785
-0.765
-0.72
-0.705
-0.675
-0.675
-0.7
-0.74
-0.775
-0.8
-0.79
-0.76
-0.75
-0.74
-0.725
-0.74
-0.76
-0.79
-0.78
-0.78
-0.785
-0.795
-0.81
-0.83
-0.84
-0.86
-0.865
-0.86
-0.865
-0.865
-0.88
-0.915
-0.93
-0.935
-0.95
-0.965
-0.965
-0.955
-0.945
-0.93
-0.915
-0.905
-0.93
-0.985
-1.035
-1.06
-1.06
-1.035
-0.99
-0.95
-0.905
-0.88
-0.875
-0.87
-0.875
-0.865
-0.855
-0.825
-0.78
-0.735
-0.695
-0.67
-0.65
-0.61
-0.585
-0.575
-0.56
-0.565
-0.56
-0.585
-0.595
-0.585
-0.565
-0.535
-0.53
-0.535
-0.555
-0.57
-0.585
-0.565
-0.555
-0.525
-0.485
-0.44
-0.38
-0.33
-0.3
-0.26
-0.245
-0.225
-0.17
-0.08
0.02
0.13
0.23
0.275
0.28
0.225
0.12
-0.03
-0.255
-0.525
-0.825
-1.08
-1.315
-1.52
-1.665
-1.81
-1.935
-2.06
-2.2
-2.325
-2.4
-2.455
-2.47
-2.455
-2.425
-2.355
-2.27
-2.135
-2.01
-1.855
-1.745
-1.66
-1.625
-1.61
-1.59
-1.535
-1.45
-1.335
-1.175
-1.07
-0.99
-0.93
-0.895
-0.86
-0.835
-0.78
-0.685
-0.57
-0.455
-0.355
-0.285
-0.245
-0.235
-0.24
-0.255
-0.26
-0.27
-0.26
-0.265
-0.27
-0.255
-0.275
-0.27
-0.265
-0.255
-0.205
-0.165
-0.11
-0.085
-0.08
-0.095
-0.125
-0.135
-0.13
-0.11
-0.07
-0.03
-0.01
0.01
0.05
0.075
0.105
0.1
0.095
0.1
0.09
0.105
0.125
0.14
0.175
0.2
0.25
0.275
0.3
0.28
0.275
0.265
0.235
0.205
0.19
0.205
0.19
0.215
0.215
0.205
0.175
0.135
0.075
0.02
-0.01
-0.04
-0.06
-0.075
-0.115
-0.165
-0.215
-0.245
-0.27
-0.295
-0.315
-0.345
-0.385
-0.43
-0.465
-0.49
-0.51
-0.53
-0.525
-0.525
-0.545
-0.565
-0.555
-0.58
-0.605
-0.61
-0.615
-0.62
-0.615
-0.595
-0.58
-0.57
-0.565
-0.575
-0.585
-0.61
-0.62
-0.62
-0.635
-0.63
-0.62
-0.61
-0.595
-0.565
-0.54
-0.55
-0.565
-0.6
-0.625
-0.645
-0.635
-0.61
-0.58
-0.56
-0.55
-0.57
-0.59
-0.63
-0.68
-0.705
-0.7
-0.65
-0.615
-0.585
-0.555
-0.565
-0.575
-0.59
-0.605
-0.615
-0.62
-0.63
-0.655
-0.64
-0.635
-0.625
-0.615
-0.615
-0.61
-0.605
-0.585
-0.605
-0.65
-0.675
-0.69
-0.67
-0.64
-0.605
-0.595
-0.58
-0.58
-0.6
-0.62
-0.645
-0.67
-0.66
-0.665
-0.655
-0.63
-0.615
-0.61
-0.615
-0.615
-0.605
-0.595
-0.575
-0.565
-0.55
-0.54
-0.505
-0.48
-0.45
-0.45
-0.46
-0.47
-0.485
-0.465
-0.425
-0.365
-0.31
-0.285
-0.255
-0.27
-0.315
-0.38
-0.385
-0.39
-0.365
-0.335
-0.325
-0.335
-0.365
-0.4
-0.415
-0.445
-0.45
-0.46
-0.48
-0.52
-0.57
-0.585
-0.58
-0.55
-0.53
-0.555
-0.595
-0.635
-0.64
-0.645
-0.64
-0.63
-0.635
-0.63
-0.595
-0.575
-0.57
-0.57
-0.555
-0.53
-0.455
-0.31
-0.12
0.105
0.325
0.545
0.75
0.94
1.12
1.24
1.33
1.36
1.32
1.22
1.035
0.78
0.47
0.14
-0.13
-0.335
-0.47
-0.54
-0.555
-0.57
-0.575
-0.58
-0.595
-0.615
-0.68
-0.76
-0.81
-0.83
-0.81
-0.78
-0.75
-0.735
-0.755
-0.78
-0.805
-0.83
-0.815
-0.805
-0.775
-0.76
-0.765
-0.775
-0.79
-0.785
-0.795
-0.8
-0.795
-0.79
-0.79
-0.78
-0.77
-0.78
-0.785
-0.79
-0.77
-0.765
-0.79
-0.825
-0.86
-0.865
-0.875
-0.855
-0.84
-0.83
-0.845
-0.88
-0.91
-0.92
-0.925
-0.93
-0.93
-0.93
-0.93
-0.975
-0.99
-1.025
-1.07
-1.105
-1.12
-1.13
-1.095
-1.08
-1.045
-1.03
-1.05
-1.09
-1.135
-1.155
-1.135
-1.1
-1.065
-1.035
-1.02
-1.01
-0.99
-0.97
-0.96
-0.97
-0.975
-0.94
-0.9
-0.845
-0.8
-0.77
-0.75
-0.73
-0.705
-0.675
-0.655
-0.625
-0.6
-0.58
-0.555
-0.525
-0.5
-0.455
-0.44
-0.465
-0.53
-0.57
-0.565
-0.525
-0.475
-0.42
-0.39
-0.39
-0.425
-0.49
-0.53
-0.53
-0.495
-0.455
-0.415
-0.405
-0.405
-0.415
-0.425
-0.44
-0.445
-0.46
-0.48
-0.49
-0.475
-0.44
-0.415
-0.39
-0.385
-0.385
-0.38
-0.385
-0.37
-0.345
-0.33
-0.31
-0.28
-0.255
-0.24
-0.23
-0.21
-0.2
-0.185
-0.185
-0.17
-0.145
-0.14
-0.155
-0.155
-0.155
-0.15
-0.15
-0.16
-0.18
-0.21
-0.21
-0.225
-0.255
-0.305
-0.33
-0.355
-0.34
-0.335
-0.33
-0.355
-0.375
-0.43
-0.425
-0.45
-0.445
-0.445
-0.45
-0.445
-0.425
-0.42
-0.425
-0.41
-0.405
-0.405
-0.41
-0.415
-0.415
-0.37
-0.275
-0.135
0.04
0.23
0.44
0.615
0.775
0.93
1.11
1.31
1.485
1.625
1.69
1.685
1.605
1.445
1.195
0.88
0.55
0.275
0.05
-0.1
-0.185
-0.23
-0.245
-0.265
-0.285
-0.33
-0.38
-0.425
-0.46
-0.47
-0.465
-0.475
-0.465
-0.47
-0.49
-0.5
-0.5
-0.51
-0.515
-0.515
-0.515
-0.52
-0.52
-0.52
-0.52
-0.515
-0.51
-0.5
-0.5
-0.49
-0.475
-0.495
-0.51
-0.525
-0.54
-0.55
-0.555
-0.52
-0.5
-0.49
-0.485
-0.495
-0.52
-0.56
-0.575
-0.59
-0.6
-0.6
-0.595
-0.595
-0.595
-0.61
-0.6
-0.615
-0.62
-0.615
-0.61
-0.615
-0.635
-0.66
-0.695
-0.72
-0.73
-0.735
-0.72
-0.71
-0.705
-0.7
-0.71
-0.735
-0.74
-0.735
-0.69
-0.65
-0.605
-0.565
-0.54
-0.535
-0.51
-0.495
-0.475
-0.45
-0.425
-0.415
-0.395
-0.355
-0.34
-0.31
-0.295
-0.285
-0.29
-0.285
-0.285
-0.285
-0.285
-0.285
-0.285
-0.29
-0.275
-0.285
-0.28
-0.28
-0.26
-0.235
-0.235
-0.225
-0.225
-0.245
-0.25
-0.26
-0.245
-0.235
-0.235
-0.235
-0.25
-0.255
-0.265
-0.265
-0.26
-0.26
-0.27
-0.28
-0.3
-0.29
-0.275
-0.24
-0.23
-0.22
-0.215
-0.235
-0.24
-0.26
-0.24
-0.225
-0.205
-0.185
-0.16
-0.14
-0.125
-0.1
-0.11
-0.12
-0.145
-0.135
-0.13
-0.075
-0.015
0.04
0.08
0.09
0.065
0.02
-0.02
-0.045
-0.045
-0.04
-0.02
-0.01
-0.005
-0.03
-0.045
-0.07
-0.1
-0.14
-0.175
-0.205
-0.23
-0.24
-0.25
-0.25
-0.255
-0.265
-0.275
-0.305
-0.315
-0.305
-0.3
-0.295
-0.295
-0.29
-0.29
-0.3
-0.3
-0.315
-0.31
-0.3
-0.28
-0.23
-0.18
-0.09
0.025
0.175
0.33
0.515
0.7
0.885
1.085
1.295
1.505
1.65
1.745
1.745
1.69
1.56
1.34
1.05
0.74
0.46
0.225
0.025
-0.1
-0.205
-0.235
-0.26
-0.26
-0.28
-0.31
-0.355
-0.405
-0.445
-0.455
-0.455
-0.45
-0.455
-0.46
-0.465
-0.46
-0.465
-0.455
-0.445
-0.45
-0.465
-0.465
-0.465
-0.455
-0.45
-0.46
-0.485
-0.51
-0.51
-0.505
-0.495
-0.49
-0.49
-0.495
-0.52
-0.52
-0.52
-0.525
-0.53
-0.54
-0.555
-0.545
-0.545
-0.545
-0.54
-0.53
-0.54
-0.565
-0.585
-0.615
-0.61
-0.63
-0.64
-0.655
-0.675
-0.705
-0.72
-0.69
-0.695
-0.69
-0.69
-0.7
-0.715
-0.74
-0.75
-0.755
-0.745
-0.725
-0.68
-0.665
-0.655
-0.645
-0.65
-0.66
-0.65
-0.625
-0.6
-0.55
-0.53
-0.495
-0.47
-0.44
-0.415
-0.41
-0.405
-0.39
-0.375
-0.36
-0.325
-0.305
-0.285
-0.26
-0.255
-0.265
-0.28
-0.29
-0.295
-0.295
-0.285
-0.275
-0.285
-0.285
-0.295
-0.285
-0.26
-0.26
-0.275
-0.285
-0.285
-0.285
-0.275
-0.28
-0.285
-0.28
-0.285
-0.29
-0.285
-0.275
-0.285
-0.285
-0.285
-0.3
-0.29
-0.285
-0.275
-0.27
-0.26
-0.245
-0.235
-0.215
-0.19
-0.185
-0.165
-0.17
-0.18
-0.17
-0.16
-0.15
-0.125
-0.095
-0.075
-0.03
-0.01
0.01
-0.01
-0.03
-0.06
-0.07
-0.07
-0.07
-0.06
-0.055
-0.06
-0.085
-0.105
-0.13
-0.18
-0.225
-0.23
-0.235
-0.245
-0.24
-0.25
-0.28
-0.3
-0.315
-0.315
-0.315
-0.31
-0.305
-0.295
-0.285
-0.28
-0.28
-0.29
-0.31
-0.305
-0.295
-0.3
-0.28
-0.24
-0.125
0.025
0.215
0.435
0.635
0.815
1.0
1.2
1.39
1.55
1.66
1.695
1.655
1.575
1.42
1.205
0.935
0.61
0.32
0.065
-0.07
-0.17
-0.195
-0.22
-0.245
-0.245
-0.295
-0.345
-0.385
-0.41
-0.445
-0.445
-0.43
-0.41
-0.39
-0.395
-0.415
-0.465
-0.485
-0.515
-0.495
-0.485
-0.485
-0.495
-0.5
-0.505
-0.515
-0.48
-0.45
-0.44
-0.455
-0.495
-0.5
-0.495
-0.475
-0.465
-0.46
-0.465
-0.49
-0.505
-0.505
-0.51
-0.505
-0.5
-0.505
-0.51
-0.54
-0.575
-0.63
-0.64
-0.63
-0.585
-0.555
-0.54
-0.56
-0.575
-0.59
-0.605
-0.63
-0.66
-0.68
-0.705
-0.715
-0.73
-0.735
-0.715
-0.715
-0.725
-0.735
-0.73
-0.73
-0.725
-0.725
-0.72
-0.72
-0.73
-0.725
-0.695
-0.67
-0.63
-0.6
-0.59
-0.56
-0.53
-0.505
-0.485
-0.45
-0.425
-0.4
-0.39
-0.375
-0.35
-0.345
-0.335
-0.325
-0.3
-0.275
-0.27
-0.24
-0.25
-0.26
-0.275
-0.275
-0.29
-0.295
-0.29
-0.29
-0.285
-0.285
-0.265
-0.26
-0.235
-0.225
-0.235
-0.24
-0.27
-0.28
-0.27
-0.25
-0.235
-0.225
-0.24
-0.27
-0.29
-0.295
-0.295
-0.27
-0.255
-0.255
-0.235
-0.22
-0.235
-0.22
-0.22
-0.2
-0.17
-0.16
-0.145
-0.12
-0.125
-0.125
-0.115
-0.095
-0.06
-0.03
0.0
0.03
0.03
0.0
-0.03
-0.055
-0.065
-0.055
-0.045
-0.05
-0.05
-0.05
-0.08
-0.105
-0.14
-0.155
-0.185
-0.215
-0.24
-0.25
-0.27
-0.275
-0.28
-0.275
-0.275
-0.29
-0.31
-0.33
-0.35
-0.36
-0.355
-0.34
-0.32
-0.305
-0.28
-0.255
-0.27
-0.255
-0.245
-0.17
-0.06
0.115
0.34
0.58
0.82
1.025
1.215
1.395
1.545
1.655
1.69
1.68
1.6
1.44
1.205
0.875
0.535
0.24
0.02
-0.12
-0.19
-0.225
-0.215
-0.21
-0.245
-0.33
-0.4
-0.465
-0.46
-0.44
-0.41
-0.385
-0.375
-0.37
-0.375
-0.38
-0.395
-0.41
-0.46
-0.485
-0.49
-0.435
-0.405
-0.385
-0.405
-0.42
-0.46
-0.465
-0.47
-0.465
-0.45
-0.455
-0.43
-0.45
-0.475
-0.495
-0.51
-0.52
-0.515
-0.52
-0.52
-0.515
-0.515
-0.53
-0.54
-0.57
-0.59
-0.595
-0.61
-0.62
-0.635
-0.67
-0.685
-0.715
-0.715
-0.715
-0.69
-0.68
-0.685
-0.685
-0.685
-0.705
-0.71
-0.715
-0.7
-0.68
-0.65
-0.61
-0.58
-0.56
-0.555
-0.535
-0.525
-0.475
-0.425
-0.37
-0.35
-0.34
-0.35
-0.345
-0.33
-0.295
-0.27
-0.235
-0.22
-0.215
-0.235
-0.24
-0.25
-0.25
-0.25
-0.245
-0.235
-0.23
-0.22
-0.22
-0.215
-0.22
-0.22
-0.205
-0.2
-0.2
-0.215
-0.22
-0.22
-0.225
-0.225
-0.2
-0.19
-0.2
-0.2
-0.21
-0.185
-0.16
-0.135
-0.105
-0.08
-0.055
-0.015
0.015
0.03
0.07
0.125
0.195
0.27
0.39
0.495
0.65
0.795
0.94
1.04
1.06
0.975
0.745
0.37
-0.11
-0.6
-1.03
-1.365
-1.625
-1.83
-2.0
-2.13
-2.25
-2.325
-2.36
-2.365
-2.345
-2.29
-2.22
-2.125
-1.99
-1.845
-1.71
-1.605
-1.555
-1.57
-1.58
-1.555
-1.49
-1.365
-1.225
-1.085
-0.955
-0.89
-0.86
-0.835
-0.8
-0.73
-0.63
-0.49
-0.335
-0.18
-0.04
0.07
0.135
0.18
0.2
0.22
0.255
0.275
0.3
0.32
0.32
0.31
0.315
0.32
0.345
0.38
0.405
0.435
0.47
0.475
0.48
0.495
