MLII
-0.995
-0.995
-0.995
-0.995
-0.995
-0.995
-0.995
-1.015
-0.985
-0.985
-0.97
-0.975
-0.97
-0.99
-1.0
-1.02
-1.025
-1.03
-1.045
-1.025
-1.035
-1.015
-1.015
-0.995
-0.99
-0.99
-0.995
-1.005
-1.005
-1.015
-1.01
-0.99
-1.02
-1.01
-1.015
-1.0
-0.99
-0.995
-1.01
-1.005
-1.015
-0.995
-1.005
-1.005
-0.985
-0.985
-0.98
-0.96
-0.94
-0.96
-0.94
-0.945
-0.945
-0.94
-0.95
-0.935
-0.915
-0.905
-0.89
-0.875
-0.86
-0.865
-0.86
-0.845
-0.85
-0.85
-0.84
-0.82
-0.805
-0.775
-0.755
-0.725
-0.705
-0.685
-0.67
-0.67
-0.66
-0.65
-0.63
-0.605
-0.6
-0.56
-0.53
-0.52
-0.495
-0.475
-0.47
-0.45
-0.45
-0.445
-0.435
-0.425
-0.415
-0.385
-0.37
-0.365
-0.365
-0.35
-0.37
-0.395
-0.42
-0.445
-0.47
-0.49
-0.525
-0.55
-0.555
-0.59
-0.615
-0.65
-0.685
-0.74
-0.765
-0.8
-0.83
-0.845
-0.85
-0.865
-0.875
-0.87
-0.865
-0.87
-0.89
-0.905
-0.925
-0.93
-0.945
-0.95
-0.935
-0.93
-0.93
-0.925
-0.93
-0.935
-0.94
-0.93
-0.95
-0.935
-0.95
-0.955
-0.96
-0.945
-0.92
-0.915
-0.905
-0.92
-0.915
-0.93
-0.935
-0.945
-0.92
-0.915
-0.905
-0.9
-0.905
-0.88
-0.875
-0.87
-0.87
-0.88
-0.88
-0.905
-0.9
-0.91
-0.9
-0.885
-0.865
-0.85
-0.85
-0.845
-0.855
-0.865
-0.875
-0.89
-0.895
-0.895
-0.89
-0.885
-0.875
-0.875
-0.86
-0.87
-0.88
-0.89
-0.9
-0.915
-0.93
-0.93
-0.905
-0.92
-0.88
-0.89
-0.885
-0.905
-0.885
-0.91
-0.9
-0.92
-0.925
-0.92
-0.925
-0.92
-0.92
-0.905
-0.9
-0.915
-0.92
-0.935
-0.945
-0.94
-0.965
-0.95
-0.96
-0.94
-0.94
-0.925
-0.91
-0.915
-0.92
-0.915
-0.92
-0.93
-0.94
-0.94
-0.935
-0.915
-0.915
-0.905
-0.895
-0.905
-0.9
-0.91
-0.91
-0.91
-0.925
-0.91
-0.89
-0.865
-0.845
-0.82
-0.8
-0.79
-0.77
-0.77
-0.755
-0.745
-0.72
-0.675
-0.64
-0.605
-0.58
-0.55
-0.56
-0.575
-0.61
-0.605
-0.625
-0.655
-0.665
-0.705
-0.745
-0.78
-0.85
-0.875
-0.91
-0.91
-0.925
-0.935
-0.95
-0.945
-0.95
-0.955
-0.96
-0.96
-0.945
-0.935
-0.94
-0.945
-0.95
-0.955
-0.965
-0.98
-0.97
-0.975
-0.975
-0.95
-0.955
-0.945
-0.93
-0.945
-0.97
-0.955
-0.95
-0.955
-0.965
-0.975
-0.99
-1.005
-1.0
-0.97
-0.89
-0.755
-0.57
-0.335
-0.04
0.32
0.665
0.945
1.115
1.205
1.175
1.04
0.82
0.45
-0.03
-0.535
-0.905
-1.085
-1.07
-0.965
-0.83
-0.735
-0.69
-0.71
-0.755
-0.825
-0.88
-0.92
-0.955
-0.955
-0.965
-0.955
-0.94
-0.935
-0.945
-0.93
-0.96
-0.945
-0.965
-0.97
-0.97
-0.98
-0.98
-0.985
-0.98
-0.98
-0.97
-0.965
-0.975
-0.97
-0.98
-0.975
-0.985
-1.0
-1.015
-0.99
-0.97
-0.97
-0.96
-0.96
-0.94
-0.95
-0.95
-0.975
-0.97
-0.965
-0.95
-0.96
-0.955
-0.93
-0.935
-0.915
-0.905
-0.905
-0.9
-0.91
-0.91
-0.92
-0.9
-0.895
-0.885
-0.885
-0.865
-0.835
-0.825
-0.82
-0.81
-0.815
-0.805
-0.81
-0.8
-0.78
-0.775
-0.745
-0.725
-0.685
-0.665
-0.65
-0.65
-0.65
-0.65
-0.61
-0.59
-0.555
-0.535
-0.5
-0.485
-0.455
-0.43
-0.405
-0.405
-0.395
-0.395
-0.385
-0.375
-0.37
-0.36
-0.34
-0.335
-0.305
-0.31
-0.345
-0.365
-0.38
-0.405
-0.425
-0.455
-0.485
-0.515
-0.535
-0.545
-0.58
-0.585
-0.625
-0.645
-0.685
-0.72
-0.735
-0.765
-0.785
-0.8
-0.805
-0.805
-0.805
-0.83
-0.825
-0.84
-0.87
-0.875
-0.89
-0.895
-0.89
-0.91
-0.9
-0.9
-0.905
-0.89
-0.91
-0.9
-0.91
-0.915
-0.915
-0.93
-0.925
-0.91
-0.895
-0.89
-0.87
-0.865
-0.87
-0.875
-0.885
-0.89
-0.89
-0.87
-0.855
-0.865
-0.85
-0.855
-0.855
-0.85
-0.855
-0.85
-0.86
-0.85
-0.83
-0.77
-0.685
-0.55
-0.41
-0.245
-0.1
0.075
0.235
0.445
0.63
0.835
1.06
1.26
1.44
1.61
1.735
1.825
1.885
1.91
1.905
1.875
1.825
1.76
1.675
1.575
1.53
1.51
1.55
1.56
1.54
1.535
1.445
1.335
1.2
1.065
0.89
0.71
0.48
0.18
-0.175
-0.52
-0.81
-0.975
-1.045
-1.065
-1.05
-1.05
-1.065
-1.11
-1.155
-1.22
-1.245
-1.27
-1.27
-1.28
-1.3
-1.32
-1.33
-1.365
-1.37
-1.39
-1.415
-1.405
-1.425
-1.425
-1.445
-1.435
-1.445
-1.48
-1.49
-1.505
-1.54
-1.535
-1.555
-1.545
-1.565
-1.565
-1.57
-1.57
-1.575
-1.585
-1.585
-1.59
-1.6
-1.615
-1.62
-1.63
-1.63
-1.645
-1.615
-1.61
-1.62
-1.615
-1.61
-1.605
-1.63
-1.64
-1.675
-1.7
-1.725
-1.745
-1.755
-1.78
-1.815
-1.885
-1.92
-1.985
-2.055
-2.12
-2.18
-2.225
-2.25
-2.27
-2.295
-2.3
-2.305
-2.31
-2.315
-2.305
-2.295
-2.285
-2.285
-2.25
-2.22
-2.18
-2.145
-2.125
-2.095
-2.05
-2.015
-1.995
-1.94
-1.88
-1.825
-1.77
-1.7
-1.63
-1.575
-1.515
-1.485
-1.45
-1.42
-1.4
-1.37
-1.33
-1.31
-1.285
-1.255
-1.23
-1.23
-1.195
-1.195
-1.195
-1.21
-1.22
-1.235
-1.23
-1.22
-1.225
-1.215
-1.21
-1.175
-1.18
-1.185
-1.21
-1.19
-1.2
-1.205
-1.21
-1.21
-1.21
-1.205
-1.185
-1.195
-1.16
-1.175
-1.165
-1.17
-1.17
-1.175
-1.175
-1.165
-1.175
-1.155
-1.145
-1.16
-1.15
-1.14
-1.155
-1.155
-1.15
-1.14
-1.145
-1.155
-1.16
-1.135
-1.135
-1.12
-1.125
-1.13
-1.125
-1.13
-1.135
-1.145
-1.15
-1.145
-1.135
-1.125
-1.12
-1.1
-1.095
-1.1
-1.1
-1.11
-1.12
-1.135
-1.135
-1.135
-1.125
-1.125
-1.095
-1.11
-1.095
-1.12
-1.14
-1.115
-1.13
-1.1
-1.12
-1.13
-1.13
-1.12
-1.11
-1.1
-1.09
-1.1
-1.095
-1.095
-1.1
-1.125
-1.12
-1.13
-1.115
-1.105
-1.1
-1.085
-1.075
-1.085
-1.09
-1.085
-1.09
-1.1
-1.09
-1.095
-1.1
-1.08
-1.08
-1.085
-1.07
-1.08
-1.085
-1.075
-1.07
-1.08
-1.09
-1.085
-1.08
-1.075
-1.07
-1.065
-1.055
-1.05
-1.05
-1.06
-1.065
-1.075
-1.085
-1.085
-1.075
-1.08
-1.075
-1.075
-1.06
-1.06
-1.05
-1.055
-1.06
-1.07
-1.075
-1.065
-1.07
-1.07
-1.055
-1.05
-1.05
-1.045
-1.055
-1.055
-1.06
-1.06
-1.065
-1.07
-1.07
-1.075
-1.065
-1.05
-1.04
-1.04
-1.045
-1.05
-1.055
-1.07
-1.06
-1.08
-1.08
-1.07
-1.065
-1.055
-1.035
-1.04
-1.045
-1.035
-1.05
-1.055
-1.06
-1.055
-1.065
-1.05
-1.065
-1.055
-1.035
-1.045
-1.045
-1.035
-1.04
-1.04
-1.045
-1.045
-1.04
-1.045
-1.025
-1.01
-1.005
-1.02
-1.015
-1.025
-1.03
-1.05
-1.055
-1.065
-1.045
-1.02
-1.035
-1.025
-1.015
-1.03
-1.005
-1.02
-1.025
-1.03
-1.03
-1.04
-1.035
-1.035
-1.015
-1.03
-1.0
-0.995
-0.995
-1.005
-1.01
-1.035
-1.04
-1.045
-1.035
-1.03
-1.01
-1.015
-1.0
-1.0
-1.005
-1.01
-1.02
-1.02
-1.035
-1.05
-1.045
-1.05
-1.045
-1.03
-1.01
-1.0
-1.01
-1.01
-1.015
-1.025
-1.045
-1.045
-1.04
-1.02
-1.015
-1.015
-1.01
-1.01
-1.0
-0.995
-1.01
-1.015
-1.02
-1.025
-1.02
-1.015
-1.01
-0.985
-0.98
-0.985
-0.99
-0.995
-1.015
-1.015
-1.02
-1.01
-1.015
-0.99
-0.985
-0.97
-0.95
-0.93
-0.93
-0.915
-0.905
-0.895
-0.875
-0.86
-0.865
-0.83
-0.805
-0.78
-0.74
-0.7
-0.665
-0.63
-0.625
-0.655
-0.675
-0.705
-0.7
-0.685
-0.69
-0.705
-0.72
-0.77
-0.82
-0.885
-0.955
-0.995
-1.02
-1.015
-1.02
-1.02
-1.015
-0.985
-0.98
-1.0
-0.995
-1.02
-1.035
-1.03
-1.035
-1.03
-1.03
-1.035
-1.01
-1.0
-0.99
-0.995
-0.995
-1.015
-1.025
-1.06
-1.09
-1.08
-1.045
-0.965
-0.8
-0.575
-0.27
0.085
0.455
0.78
1.03
1.145
1.14
0.99
0.685
0.24
-0.3
-0.755
-1.04
-1.115
-1.035
-0.92
-0.815
-0.77
-0.79
-0.87
-0.915
-0.98
-1.0
-1.005
-1.005
-1.005
-1.015
-1.02
-1.04
-1.03
-1.04
-1.06
-1.045
-1.055
-1.045
-1.05
-1.045
-1.03
-1.025
-1.045
-1.055
-1.065
-1.07
-1.06
-1.055
-1.055
-1.05
-1.045
-1.025
-1.045
-1.065
-1.065
-1.06
-1.07
-1.08
-1.07
-1.06
-1.06
-1.055
-1.035
-1.025
-1.03
-1.025
-1.04
-1.035
-1.045
-1.04
-1.025
-1.025
-1.005
-1.01
-0.995
-0.99
-0.985
-0.975
-0.985
-0.985
-0.985
-0.99
-0.97
-0.96
-0.95
-0.915
-0.91
-0.91
-0.885
-0.885
-0.885
-0.875
-0.865
-0.86
-0.85
-0.835
-0.795
-0.785
-0.765
-0.745
-0.72
-0.71
-0.695
-0.69
-0.675
-0.66
-0.65
-0.62
-0.62
-0.575
-0.545
-0.545
-0.535
-0.52
-0.515
-0.51
-0.505
-0.495
-0.485
-0.47
-0.46
-0.455
-0.45
-0.46
-0.48
-0.5
-0.525
-0.55
-0.57
-0.595
-0.615
-0.63
-0.65
-0.675
-0.695
-0.7
-0.74
-0.765
-0.78
-0.81
-0.81
-0.835
-0.84
-0.85
-0.85
-0.84
-0.835
-0.84
-0.85
-0.855
-0.875
-0.895
-0.91
-0.915
-0.915
-0.905
-0.89
-0.87
-0.88
-0.88
-0.875
-0.885
-0.89
-0.88
-0.895
-0.9
-0.895
-0.885
-0.87
-0.86
-0.85
-0.84
-0.85
-0.865
-0.85
-0.86
-0.855
-0.86
-0.86
-0.87
-0.85
-0.855
-0.845
-0.84
-0.865
-0.86
-0.855
-0.85
-0.855
-0.875
-0.875
-0.875
-0.86
-0.845
-0.84
-0.835
-0.855
-0.865
-0.875
-0.89
-0.9
-0.89
-0.895
-0.89
-0.9
-0.895
-0.88
-0.86
-0.885
-0.885
-0.9
-0.905
-0.92
-0.925
-0.925
-0.91
-0.925
-0.93
-0.92
-0.93
-0.91
-0.93
-0.92
-0.945
-0.955
-0.945
-0.955
-0.95
-0.95
-0.94
-0.92
-0.915
-0.925
-0.94
-0.945
-0.955
-0.96
-0.95
-0.955
-0.955
-0.945
-0.955
-0.95
-0.94
-0.935
-0.94
-0.95
-0.96
-0.96
-0.965
-0.96
-0.965
-0.945
-0.915
-0.93
-0.935
-0.945
-0.93
-0.955
-0.945
-0.945
-0.955
-0.935
-0.95
-0.945
-0.935
-0.925
-0.92
-0.92
-0.91
-0.915
-0.92
-0.915
-0.905
-0.89
-0.85
-0.83
-0.81
-0.79
-0.77
-0.765
-0.76
-0.735
-0.725
-0.71
-0.67
-0.635
-0.6
-0.585
-0.58
-0.59
-0.595
-0.61
-0.615
-0.615
-0.62
-0.65
-0.685
-0.73
-0.765
-0.815
-0.865
-0.895
-0.92
-0.94
-0.945
-0.96
-0.96
-0.965
-0.97
-0.975
-0.965
-0.96
-0.95
-0.96
-0.96
-0.96
-0.96
-0.965
-0.97
-0.97
-0.98
-0.97
-0.97
-0.97
-0.95
-0.93
-0.945
-0.925
-0.93
-0.945
-0.945
-0.98
-1.02
-1.04
-1.015
-0.96
-0.86
-0.695
-0.48
-0.225
0.09
0.395
0.715
0.955
1.115
1.17
1.165
1.095
0.925
0.64
0.23
-0.265
-0.705
-1.01
-1.085
-1.05
-0.9
-0.77
-0.71
-0.7
-0.72
-0.77
-0.845
-0.905
-0.915
-0.925
-0.935
-0.945
-0.945
-0.94
-0.94
-0.935
-0.935
-0.925
-0.935
-0.945
-0.95
-0.955
-0.965
-0.975
-1.0
-0.985
-0.98
-0.985
-0.97
-0.965
-0.965
-0.975
-0.98
-0.97
-0.97
-0.98
-0.99
-0.965
-0.97
-0.96
-0.945
-0.94
-0.94
-0.945
-0.945
-0.95
-0.96
-0.96
-0.96
-0.95
-0.945
-0.945
-0.93
-0.91
-0.91
-0.91
-0.925
-0.91
-0.92
-0.935
-0.92
-0.915
-0.905
-0.88
-0.87
-0.86
-0.85
-0.865
-0.855
-0.835
-0.84
-0.825
-0.81
-0.815
-0.78
-0.785
-0.755
-0.735
-0.71
-0.71
-0.705
-0.675
-0.67
-0.65
-0.645
-0.625
-0.605
-0.59
-0.565
-0.535
-0.51
-0.5
-0.485
-0.485
-0.475
-0.47
-0.475
-0.44
-0.425
-0.4
-0.39
-0.365
-0.365
-0.355
-0.35
-0.35
-0.36
-0.37
-0.39
-0.395
-0.41
-0.425
-0.44
-0.45
-0.49
-0.51
-0.55
-0.595
-0.62
-0.655
-0.68
-0.7
-0.715
-0.745
-0.745
-0.765
-0.775
-0.79
-0.8
-0.83
-0.84
-0.85
-0.87
-0.88
-0.89
-0.895
-0.89
-0.87
-0.875
-0.89
-0.885
-0.885
-0.91
-0.92
-0.915
-0.925
-0.92
-0.91
-0.91
-0.9
-0.9
-0.9
-0.915
-0.92
-0.925
-0.93
-0.925
-0.925
-0.915
-0.9
-0.88
-0.88
-0.865
-0.865
-0.89
-0.89
-0.9
-0.92
-0.9
-0.89
-0.89
-0.89
-0.875
-0.88
-0.875
-0.86
-0.86
-0.88
-0.88
-0.9
-0.895
-0.92
-0.905
-0.89
-0.87
-0.88
-0.875
-0.885
-0.89
-0.905
-0.905
-0.9
-0.915
-0.92
-0.92
-0.905
-0.915
-0.915
-0.89
-0.925
-0.925
-0.93
-0.93
-0.935
-0.945
-0.935
-0.925
-0.93
-0.92
-0.92
-0.91
-0.91
-0.93
-0.945
-0.955
-0.96
-0.965
-0.955
-0.96
-0.945
-0.94
-0.935
-0.94
-0.94
-0.93
-0.945
-0.955
-0.955
-0.965
-0.95
-0.955
-0.95
-0.96
-0.945
-0.95
-0.955
-0.945
-0.955
-0.965
-0.985
-0.99
-0.965
-0.965
-0.96
-0.955
-0.96
-0.94
-0.945
-0.94
-0.94
-0.93
-0.94
-0.92
-0.92
-0.9
-0.885
-0.84
-0.835
-0.815
-0.79
-0.8
-0.785
-0.75
-0.735
-0.69
-0.65
-0.65
-0.64
-0.64
-0.645
-0.64
-0.65
-0.665
-0.66
-0.67
-0.72
-0.735
-0.785
-0.83
-0.885
-0.93
-0.945
-0.96
-0.975
-0.975
-1.0
-1.02
-1.015
-1.015
-1.02
-1.015
-1.01
-1.01
-1.01
-1.01
-1.015
-1.01
-1.015
-1.035
-1.035
-1.03
-1.04
-1.04
-1.04
-1.015
-1.01
-1.005
-0.99
-0.995
-1.0
-1.01
-1.04
-1.045
-1.075
-1.095
-1.075
-0.995
-0.87
-0.68
-0.43
-0.105
0.255
0.59
0.88
1.055
1.11
1.06
0.91
0.615
0.195
-0.295
-0.76
-1.07
-1.185
-1.135
-1.005
-0.88
-0.815
-0.795
-0.84
-0.885
-0.945
-0.99
-1.01
-1.025
-1.02
-1.035
-1.04
-1.055
-1.055
-1.055
-1.05
-1.045
-1.045
-1.04
-1.055
-1.05
-1.055
-1.065
-1.08
-1.07
-1.075
-1.06
-1.08
-1.07
-1.07
-1.065
-1.07
-1.065
-1.06
-1.065
-1.075
-1.09
-1.075
-1.07
-1.075
-1.055
-1.04
-1.035
-1.045
-1.055
-1.055
-1.06
-1.06
-1.08
-1.055
-1.06
-1.035
-1.015
-1.015
-1.0
-0.995
-1.005
-1.01
-1.015
-1.01
-1.005
-0.985
-0.975
-0.96
-0.94
-0.915
-0.91
-0.905
-0.9
-0.895
-0.88
-0.88
-0.89
-0.88
-0.85
-0.815
-0.785
-0.75
-0.735
-0.715
-0.705
-0.705
-0.69
-0.685
-0.67
-0.66
-0.63
-0.635
-0.59
-0.56
-0.555
-0.53
-0.52
-0.52
-0.51
-0.51
-0.51
-0.5
-0.49
-0.48
-0.47
-0.465
-0.46
-0.48
-0.495
-0.53
-0.545
-0.585
-0.605
-0.635
-0.65
-0.67
-0.71
-0.72
-0.745
-0.775
-0.815
-0.84
-0.865
-0.9
-0.92
-0.92
-0.945
-0.945
-0.96
-0.975
-0.975
-0.99
-1.005
-1.005
-1.03
-1.045
-1.065
-1.06
-1.045
-1.035
-1.03
-1.04
-1.03
-1.05
-1.06
-1.06
-1.06
-1.07
-1.07
-1.065
-1.06
-1.045
-1.035
-1.03
-1.015
-1.01
-1.015
-1.04
-1.04
-1.03
-1.035
-1.05
-1.025
-1.01
-1.02
-1.005
-0.995
-0.98
-0.99
-1.005
-1.01
-1.015
-1.005
-1.015
-1.01
-0.995
-0.985
-0.975
-0.975
-0.965
-0.965
-0.995
-0.995
-1.0
-1.005
-1.02
-1.005
-1.005
-1.0
-0.975
-0.985
-1.005
-1.0
-1.02
-1.02
-1.03
-1.01
-1.01
-1.015
-1.01
-1.0
-0.995
-1.01
-1.005
-1.015
-1.03
-1.025
-1.045
-1.06
-1.05
-1.04
-1.04
-1.03
-1.035
-1.015
-1.03
-1.035
-1.04
-1.035
-1.05
-1.06
-1.075
-1.06
-1.05
-1.045
-1.04
-1.03
-1.03
-1.035
-1.045
-1.05
-1.06
-1.065
-1.075
-1.06
-1.05
-1.035
-1.035
-1.015
-1.01
-0.995
-0.995
-0.985
-0.985
-0.97
-0.95
-0.945
-0.925
-0.91
-0.89
-0.865
-0.86
-0.825
-0.81
-0.77
-0.74
-0.72
-0.71
-0.695
-0.7
-0.705
-0.72
-0.695
-0.71
-0.72
-0.755
-0.8
-0.84
-0.9
-0.965
-1.015
-1.045
-1.04
-1.055
-1.06
-1.045
-1.055
-1.05
-1.075
-1.085
-1.08
-1.08
-1.08
-1.07
-1.065
-1.075
-1.07
-1.08
-1.09
-1.085
-1.1
-1.085
-1.1
-1.105
-1.085
-1.075
-1.055
-1.065
-1.05
-1.055
-1.06
-1.085
-1.12
-1.12
-1.09
-0.99
-0.835
-0.575
-0.255
0.145
0.535
0.865
1.065
1.165
1.11
0.9
0.525
-0.015
-0.575
-1.0
-1.21
-1.21
-1.085
-0.955
-0.855
-0.83
-0.855
-0.935
-0.99
-1.035
-1.05
-1.085
-1.055
-1.06
-1.025
-1.035
-1.045
-1.05
-1.055
-1.09
-1.09
-1.085
-1.085
-1.08
-1.08
-1.07
-1.055
-1.065
-1.07
-1.06
-1.08
-1.09
-1.09
-1.09
-1.085
-1.07
-1.07
-1.05
-1.045
-1.055
-1.065
-1.065
-1.04
-1.06
-1.055
-1.05
-1.065
-1.04
-1.03
-1.02
-1.025
-1.01
-0.99
-0.995
-0.99
-0.99
-0.985
-0.98
-0.97
-0.955
-0.935
-0.935
-0.91
-0.905
-0.905
-0.89
-0.9
-0.915
-0.905
-0.88
-0.845
-0.82
-0.815
-0.775
-0.765
-0.745
-0.71
-0.725
-0.695
-0.675
-0.64
-0.625
-0.605
-0.57
-0.55
-0.53
-0.51
-0.485
-0.47
-0.47
-0.45
-0.445
-0.42
-0.425
-0.415
-0.41
-0.395
-0.395
-0.37
-0.4
-0.41
-0.45
-0.485
-0.5
-0.53
-0.585
-0.615
-0.62
-0.65
-0.665
-0.705
-0.74
-0.765
-0.8
-0.83
-0.85
-0.86
-0.885
-0.91
-0.905
-0.915
-0.92
-0.93
-0.93
-0.955
-0.96
-0.97
-0.975
-0.985
-0.995
-1.0
-0.98
-0.99
-0.975
-0.96
-0.965
-0.98
-0.985
-0.99
-0.995
-0.98
-0.985
-0.985
-0.965
-0.945
-0.945
-0.925
-0.925
-0.94
-0.95
-0.955
-0.955
-0.935
-0.945
-0.945
-0.93
-0.915
-0.915
-0.91
-0.915
-0.92
-0.93
-0.94
-0.92
-0.925
-0.935
-0.915
-0.905
-0.895
-0.885
-0.89
-0.9
-0.9
-0.905
-0.905
-0.915
-0.93
-0.925
-0.93
-0.915
-0.92
-0.915
-0.92
-0.915
-0.92
-0.925
-0.93
-0.925
-0.945
-0.955
-0.955
-0.955
-0.94
-0.92
-0.92
-0.945
-0.945
-0.935
-0.945
-0.95
-0.965
-0.96
-0.965
-0.945
-0.95
-0.94
-0.925
-0.945
-0.95
-0.97
-0.965
-0.97
-0.97
-0.99
-0.99
-0.96
-0.975
-0.945
-0.95
-0.95
-0.96
-0.955
-0.965
-0.99
-0.975
-0.975
-0.975
-0.96
-0.96
-0.945
-0.94
-0.935
-0.93
-0.945
-0.945
-0.965
-0.95
-0.96
-0.955
-0.92
-0.905
-0.88
-0.86
-0.845
-0.85
-0.835
-0.83
-0.815
-0.82
-0.815
-0.78
-0.745
-0.725
-0.685
-0.63
-0.605
-0.59
-0.59
-0.6
-0.62
-0.635
-0.665
-0.645
-0.64
-0.645
-0.65
-0.71
-0.755
-0.82
-0.875
-0.925
-0.96
-0.995
-1.02
-1.01
-0.99
-0.97
-0.96
-0.97
-0.975
-0.975
-0.99
-1.01
-1.01
-1.015
-1.025
-1.01
-1.005
-1.015
-0.995
-0.99
-0.98
-0.985
-0.99
-0.99
-0.99
-0.99
-0.99
-0.985
-0.995
-0.985
-0.985
-0.99
-1.01
-1.035
-1.05
-1.035
-0.985
-0.88
-0.71
-0.45
-0.145
0.225
0.6
0.92
1.13
1.205
1.2
1.085
0.845
0.45
-0.045
-0.57
-0.935
-1.12
-1.095
-0.995
-0.845
-0.755
-0.745
-0.775
-0.825
-0.91
-0.96
-0.99
-0.99
-0.97
-0.975
-0.95
-0.96
-0.965
-0.955
-0.97
-1.005
-1.005
-1.02
-1.005
-1.0
-0.995
-1.0
-0.99
-0.99
-1.01
-0.995
-1.01
-1.015
-1.015
-1.025
-1.015
-1.0
-0.99
-0.995
-0.99
-0.99
-1.0
-0.995
-1.01
-1.03
-1.03
-1.005
-1.015
-0.995
-0.99
-0.97
-0.955
-0.955
-0.955
-0.955
-0.975
-0.965
-0.97
-0.97
-0.97
-0.935
-0.925
-0.92
-0.925
-0.935
-0.925
-0.915
-0.91
-0.91
-0.905
-0.895
-0.9
-0.875
-0.855
-0.825
-0.81
-0.8
-0.785
-0.775
-0.765
-0.765
-0.765
-0.745
-0.72
-0.695
-0.67
-0.635
-0.6
-0.59
-0.575
-0.56
-0.54
-0.535
-0.515
-0.505
-0.48
-0.46
-0.435
-0.42
-0.4
-0.38
-0.355
-0.37
-0.365
-0.37
-0.375
-0.385
-0.4
-0.42
-0.44
-0.46
-0.47
-0.505
-0.535
-0.575
-0.63
-0.64
-0.69
-0.715
-0.75
-0.755
-0.775
-0.78
-0.79
-0.815
-0.84
-0.85
-0.895
-0.91
-0.925
-0.93
-0.93
-0.94
-0.935
-0.92
-0.915
-0.925
-0.93
-0.935
-0.935
-0.935
-0.95
-0.965
-0.97
-0.965
-0.96
-0.96
-0.93
-0.94
-0.935
-0.935
-0.935
-0.95
-0.945
-0.945
-0.935
-0.94
-0.925
-0.925
-0.915
-0.915
-0.915
-0.91
-0.925
-0.92
-0.945
-0.95
-0.91
-0.865
-0.795
-0.69
-0.555
-0.405
-0.28
-0.135
0.005
0.175
0.36
0.555
0.78
1.0
1.215
1.395
1.57
1.715
1.83
1.9
1.935
1.94
1.945
1.915
1.88
1.815
1.735
1.675
1.63
1.6
1.605
1.61
1.57
1.53
1.44
1.3
1.15
0.985
0.78
0.53
0.18
-0.21
-0.6
-0.88
-1.07
-1.13
-1.145
-1.13
-1.1
-1.12
-1.145
-1.19
-1.225
-1.255
-1.3
-1.325
-1.355
-1.375
-1.395
-1.4
-1.415
-1.425
-1.43
-1.455
-1.455
-1.46
-1.465
-1.475
-1.495
-1.52
-1.535
-1.545
-1.56
-1.56
-1.56
-1.57
-1.565
-1.575
-1.565
-1.575
-1.575
-1.59
-1.59
-1.59
-1.605
-1.62
-1.605
-1.605
-1.585
-1.575
-1.6
-1.57
-1.585
-1.605
-1.635
-1.675
-1.685
-1.71
-1.725
-1.72
-1.745
-1.8
-1.855
-1.91
-1.98
-2.035
-2.1
-2.17
-2.215
-2.245
-2.275
-2.28
-2.315
-2.33
-2.32
-2.335
-2.35
-2.36
-2.365
-2.375
-2.37
-2.35
-2.315
-2.29
-2.26
-2.225
-2.195
-2.165
-2.145
-2.11
-2.04
-1.985
-1.92
-1.86
-1.79
-1.76
-1.67
-1.625
-1.58
-1.54
-1.495
-1.455
-1.415
-1.38
-1.35
-1.33
-1.3
-1.27
-1.27
-1.255
-1.235
-1.23
-1.225
-1.225
-1.22
-1.26
-1.24
-1.215
-1.205
-1.22
-1.205
-1.205
-1.2
-1.21
-1.215
-1.21
-1.215
-1.225
-1.2
-1.205
-1.195
-1.19
-1.17
-1.17
-1.175
-1.17
-1.18
-1.19
-1.185
-1.18
-1.175
-1.175
-1.155
-1.145
-1.13
-1.115
-1.12
-1.135
-1.135
-1.145
-1.14
-1.135
-1.145
-1.13
-1.13
-1.125
-1.115
-1.105
-1.115
-1.095
-1.095
-1.11
-1.115
-1.11
-1.115
-1.1
-1.12
-1.095
-1.08
-1.085
-1.08
-1.08
-1.075
-1.085
-1.1
-1.105
-1.09
-1.1
-1.08
-1.075
-1.06
-1.05
-1.035
-1.045
-1.055
-1.06
-1.07
-1.065
-1.08
-1.08
-1.06
-1.045
-1.035
-1.04
-1.04
-1.04
-1.045
-1.06
-1.05
-1.045
-1.045
-1.05
-1.03
-1.035
-1.015
-1.015
-1.02
-1.025
-1.02
-1.03
-1.03
-1.02
-1.025
-1.035
-1.015
-1.01
-1.005
-0.995
-1.0
-1.01
-1.01
-1.015
-1.025
-1.03
-1.025
-1.015
-1.01
-0.98
-0.975
-0.96
-0.985
-0.985
-1.005
-0.995
-1.01
-1.03
-1.005
-1.01
-0.995
-0.975
-0.965
-0.96
-0.955
-0.97
-0.99
-0.985
-1.005
-0.985
-0.985
-0.97
-0.98
-0.955
-0.95
-0.95
-0.96
-0.955
-0.98
-0.98
-0.985
-0.985
-0.99
-0.97
-0.96
-0.96
-0.945
-0.95
-0.95
-0.95
-0.96
-0.965
-0.99
-0.975
-0.97
-0.96
-0.96
-0.965
-0.93
-0.945
-0.95
-0.955
-0.965
-0.965
-0.975
-0.975
-0.955
-0.955
-0.94
-0.955
-0.95
-0.95
-0.945
-0.95
-0.955
-0.96
-0.965
-0.97
-0.96
-0.96
-0.955
-0.935
-0.945
-0.935
-0.925
-0.93
-0.935
-0.945
-0.95
-0.965
-0.975
-0.95
-0.935
-0.95
-0.925
-0.915
-0.925
-0.925
-0.93
-0.93
-0.935
-0.945
-0.935
-0.935
-0.94
-0.92
-0.905
-0.895
-0.905
-0.905
-0.91
-0.92
-0.935
-0.96
-0.955
-0.925
-0.92
-0.92
-0.915
-0.905
-0.885
-0.9
-0.895
-0.905
-0.92
-0.915
-0.93
-0.92
-0.92
-0.92
-0.915
-0.885
-0.885
-0.885
-0.91
-0.925
-0.935
-0.915
-0.905
-0.905
-0.895
-0.9
-0.88
-0.885
-0.89
-0.87
-0.89
-0.905
-0.91
-0.93
-0.93
-0.925
-0.895
-0.89
-0.87
-0.865
-0.87
-0.875
-0.875
-0.885
-0.89
-0.895
-0.885
-0.875
-0.85
-0.825
-0.81
-0.775
-0.775
-0.765
-0.78
-0.775
-0.745
-0.72
-0.69
-0.655
-0.605
-0.555
-0.52
-0.52
-0.52
-0.545
-0.545
-0.58
-0.575
-0.575
-0.575
-0.585
-0.605
-0.645
-0.685
-0.745
-0.815
-0.84
-0.88
-0.89
-0.91
-0.905
-0.9
-0.895
-0.895
-0.89
-0.88
-0.885
-0.885
-0.89
-0.895
-0.915
-0.91
-0.92
-0.91
-0.905
-0.885
-0.9
-0.905
-0.885
-0.895
-0.935
-0.965
-0.98
-0.95
-0.875
-0.735
-0.525
-0.26
0.07
0.435
0.795
1.075
1.275
1.345
1.32
1.19
0.935
0.545
0.045
-0.46
-0.84
-1.0
-0.98
-0.86
-0.745
-0.67
-0.665
-0.695
-0.78
-0.83
-0.885
-0.91
-0.93
-0.905
-0.895
-0.89
-0.9
-0.895
-0.91
-0.925
-0.935
-0.95
-0.945
-0.93
-0.935
-0.925
-0.91
-0.915
-0.935
-0.935
-0.935
-0.96
-0.985
-0.96
-0.955
-0.955
-0.935
-0.935
-0.925
-0.925
-0.93
-0.945
-0.955
-0.98
-0.97
-0.955
-0.95
-0.94
-0.935
-0.925
-0.92
-0.93
-0.92
-0.925
-0.945
-0.935
-0.94
-0.935
-0.915
-0.915
-0.895
-0.885
-0.875
-0.87
-0.875
-0.86
-0.865
-0.88
-0.87
-0.85
-0.85
-0.81
-0.81
-0.78
-0.77
-0.77
-0.76
-0.765
-0.75
-0.765
-0.74
-0.73
-0.695
-0.67
-0.65
-0.62
-0.605
-0.595
-0.575
-0.57
-0.565
-0.555
-0.545
-0.535
-0.515
-0.48
-0.475
-0.465
-0.435
-0.425
-0.41
-0.41
-0.42
-0.4
-0.405
-0.38
-0.36
-0.345
-0.34
-0.335
-0.32
-0.33
-0.33
-0.35
-0.37
-0.39
-0.415
-0.445
-0.45
-0.475
-0.485
-0.51
-0.52
-0.545
-0.58
-0.605
-0.63
-0.65
-0.685
-0.71
-0.725
-0.725
-0.73
-0.73
-0.735
-0.755
-0.775
-0.78
-0.795
-0.81
-0.805
-0.8
-0.795
-0.805
-0.8
-0.79
-0.78
-0.795
-0.79
-0.79
-0.8
-0.8
-0.82
-0.815
-0.795
-0.79
-0.78
-0.77
-0.775
-0.775
-0.77
-0.78
-0.79
-0.785
-0.785
-0.79
-0.78
-0.765
-0.77
-0.755
-0.76
-0.775
-0.77
-0.775
-0.785
-0.79
-0.795
-0.805
-0.8
-0.79
-0.78
-0.775
-0.78
-0.785
-0.785
-0.8
-0.81
-0.825
-0.825
-0.84
-0.825
-0.81
-0.8
-0.79
-0.795
-0.8
-0.83
-0.84
-0.85
-0.845
-0.85
-0.845
-0.84
-0.84
-0.825
-0.82
-0.825
-0.83
-0.845
-0.88
-0.88
-0.88
-0.89
-0.89
-0.895
-0.9
-0.89
-0.87
-0.885
-0.87
-0.87
-0.89
-0.895
-0.905
-0.9
-0.91
-0.9
-0.91
-0.89
-0.88
-0.87
-0.88
-0.875
-0.89
-0.885
-0.915
-0.905
-0.925
-0.905
-0.88
-0.88
-0.885
-0.875
-0.88
-0.88
-0.89
-0.9
-0.91
-0.92
-0.92
-0.895
-0.89
-0.885
-0.875
-0.89
-0.89
-0.885
-0.88
-0.895
-0.885
-0.885
-0.895
-0.85
-0.83
-0.805
-0.78
-0.76
-0.75
-0.745
-0.725
-0.72
-0.72
-0.7
-0.69
-0.655
-0.59
-0.56
-0.52
-0.495
-0.515
-0.535
-0.565
-0.57
-0.565
-0.585
-0.575
-0.59
-0.595
-0.605
-0.65
-0.705
-0.755
-0.805
-0.86
-0.895
-0.89
-0.915
-0.9
-0.915
-0.89
-0.905
-0.89
-0.89
-0.91
-0.93
-0.945
-0.94
-0.945
-0.94
-0.945
-0.925
-0.925
-0.915
-0.91
-0.905
-0.91
-0.91
-0.9
-0.93
-0.93
-0.94
-0.97
-0.975
-0.975
-0.93
-0.85
-0.7
-0.5
-0.185
0.155
0.535
0.88
1.13
1.28
1.29
1.23
1.035
0.71
0.25
-0.285
-0.715
-0.99
-1.07
-0.975
-0.855
-0.72
-0.665
-0.67
-0.71
-0.77
-0.825
-0.87
-0.89
-0.905
-0.915
-0.92
-0.9
-0.915
-0.92
-0.91
-0.895
-0.895
-0.9
-0.915
-0.92
-0.935
-0.94
-0.935
-0.94
-0.95
-0.95
-0.93
-0.93
-0.905
-0.9
-0.905
-0.925
-0.92
-0.93
-0.945
-0.94
-0.94
-0.935
-0.915
-0.91
-0.91
-0.89
-0.895
-0.9
-0.92
-0.915
-0.925
-0.92
-0.93
-0.94
-0.9
-0.88
-0.865
-0.86
-0.855
-0.855
-0.855
-0.85
-0.86
-0.845
-0.865
-0.84
-0.815
-0.82
-0.8
-0.775
-0.775
-0.755
-0.765
-0.735
-0.74
-0.73
-0.71
-0.705
-0.67
-0.665
-0.62
-0.595
-0.565
-0.56
-0.54
-0.535
-0.535
-0.515
-0.5
-0.475
-0.445
-0.41
-0.38
-0.36
-0.35
-0.33
-0.345
-0.335
-0.32
-0.33
-0.32
-0.325
-0.295
-0.31
-0.3
-0.31
-0.325
-0.345
-0.39
-0.405
-0.435
-0.455
-0.5
-0.515
-0.535
-0.565
-0.595
-0.61
-0.635
-0.67
-0.705
-0.725
-0.75
-0.775
-0.785
-0.795
-0.8
-0.81
-0.8
-0.82
-0.845
-0.84
-0.86
-0.885
-0.87
-0.865
-0.885
-0.88
-0.875
-0.855
-0.86
-0.85
-0.87
-0.86
-0.855
-0.865
-0.865
-0.91
-0.905
-0.895
-0.885
-0.85
-0.855
-0.84
-0.845
-0.83
-0.86
-0.86
-0.875
-0.87
-0.89
-0.875
-0.85
-0.85
-0.835
-0.83
-0.835
-0.84
-0.835
-0.845
-0.86
-0.86
-0.885
-0.865
-0.85
-0.845
-0.845
-0.83
-0.83
-0.84
-0.845
-0.855
-0.865
-0.865
-0.875
-0.87
-0.86
-0.84
-0.84
-0.84
-0.84
-0.86
-0.88
-0.895
-0.895
-0.89
-0.895
-0.9
-0.89
-0.875
-0.865
-0.865
-0.87
-0.895
-0.89
-0.905
-0.905
-0.91
-0.915
-0.905
-0.89
-0.885
-0.875
-0.875
-0.875
-0.905
-0.885
-0.895
-0.91
-0.905
-0.91
-0.91
-0.88
-0.875
-0.88
-0.89
-0.89
-0.91
-0.91
-0.92
-0.905
-0.92
-0.915
-0.915
-0.905
-0.89
-0.875
-0.855
-0.845
-0.835
-0.825
-0.82
-0.815
-0.8
-0.795
-0.77
-0.755
-0.725
-0.715
-0.665
-0.63
-0.585
-0.585
-0.56
-0.57
-0.585
-0.59
-0.59
-0.58
-0.565
-0.575
-0.59
-0.63
-0.695
-0.755
-0.815
-0.875
-0.905
-0.94
-0.95
-0.935
-0.92
-0.93
-0.91
-0.92
-0.93
-0.93
-0.96
-0.955
-0.975
-0.98
-0.96
-0.95
-0.945
-0.945
-0.935
-0.935
-0.94
-0.96
-0.97
-0.96
-0.97
-0.97
-0.985
-0.975
-0.97
-0.98
-1.005
-1.01
-1.0
-0.935
-0.84
-0.685
-0.475
-0.17
0.195
0.575
0.895
1.135
1.265
1.285
1.2
0.985
0.67
0.235
-0.31
-0.76
-1.06
-1.14
-1.055
-0.915
-0.775
-0.7
-0.705
-0.77
-0.835
-0.905
-0.94
-0.985
-0.985
-0.965
-0.95
-0.95
-0.94
-0.955
-0.965
-0.97
-0.975
-0.99
-1.01
-1.005
-1.015
-0.99
-0.98
-0.975
-0.96
-0.975
-0.98
-0.98
-0.995
-1.005
-1.01
-1.015
-1.03
-1.005
-0.995
-0.98
-0.975
-0.99
-0.99
-0.99
-0.99
-1.0
-0.995
-1.0
-1.01
-0.995
-0.985
-0.965
-0.97
-0.985
-0.975
-0.97
-0.975
-0.975
-0.97
-0.97
-0.97
-0.96
-0.92
-0.895
-0.88
-0.87
-0.865
-0.865
-0.88
-0.88
-0.865
-0.865
-0.86
-0.83
-0.81
-0.795
-0.755
-0.76
-0.75
-0.74
-0.715
-0.705
-0.68
-0.66
-0.635
-0.61
-0.565
-0.55
-0.53
-0.525
-0.51
-0.485
-0.475
-0.475
-0.46
-0.455
-0.43
-0.41
-0.395
-0.39
-0.36
-0.37
-0.375
-0.38
-0.41
-0.425
-0.46
-0.47
-0.49
-0.495
-0.535
-0.555
-0.57
-0.6
-0.635
-0.68
-0.71
-0.745
-0.78
-0.795
-0.82
-0.835
-0.84
-0.845
-0.87
-0.87
-0.905
-0.92
-0.945
-0.95
-0.955
-0.96
-0.975
-0.97
-0.96
-0.95
-0.955
-0.955
-0.955
-0.965
-0.97
-0.995
-1.005
-1.0
-0.985
-1.0
-0.98
-0.965
-0.955
-0.97
-0.97
-0.96
-0.98
-0.975
-0.98
-0.98
-0.985
-0.965
-0.94
-0.93
-0.915
-0.93
-0.915
-0.93
-0.94
-0.95
-0.945
-0.94
-0.945
-0.94
-0.935
-0.935
-0.91
-0.925
-0.92
-0.935
-0.93
-0.945
-0.94
-0.96
-0.95
-0.95
-0.93
-0.94
-0.935
-0.92
-0.935
-0.945
-0.955
-0.95
-0.965
-0.965
-0.97
-0.96
-0.975
-0.965
-0.96
-0.95
-0.96
-0.97
-0.975
-0.99
-0.995
-0.99
-0.99
-0.98
-0.975
-0.975
-0.955
-0.975
-0.98
-0.985
-0.995
-0.99
-0.985
-1.0
-0.995
-0.99
-0.99
-0.99
-0.99
-0.985
-0.985
-0.995
-1.01
-1.01
-1.005
-0.99
-0.99
-0.97
-0.935
-0.91
-0.885
-0.86
-0.85
-0.85
-0.84
-0.83
-0.81
-0.8
-0.75
-0.71
-0.67
-0.65
-0.64
-0.64
-0.665
-0.68
-0.69
-0.685
-0.71
-0.73
-0.775
-0.815
-0.865
-0.905
-0.935
-0.965
-0.995
-1.005
-1.025
-1.035
-1.045
-1.04
-1.025
-1.035
-1.035
-1.035
-1.02
-1.02
-1.035
-1.05
-1.05
-1.055
-1.075
-1.065
-1.06
-1.06
-1.065
-1.035
-1.045
-1.025
-1.04
-1.045
-1.055
-1.055
-1.055
-1.055
-1.06
-1.07
-1.075
-1.085
-1.06
-1.025
-0.94
-0.78
-0.575
-0.29
0.05
0.41
0.74
0.995
1.145
1.19
1.13
0.955
0.63
0.19
-0.34
-0.805
-1.11
-1.2
-1.125
-0.985
-0.83
-0.755
-0.75
-0.805
-0.88
-0.93
-0.985
-1.01
-1.03
-1.02
-1.02
-1.01
-1.005
-0.995
-1.0
-1.0
-1.015
-1.025
-1.04
-1.035
-1.04
-1.03
-1.04
-1.02
-1.02
-1.02
-1.015
-1.01
-1.025
-1.015
-1.035
-1.045
-1.04
-1.055
-1.045
-1.025
-1.025
-1.005
-0.995
-0.985
-0.99
-1.0
-1.01
-1.025
-1.03
-1.03
-1.025
-1.01
-0.98
-0.98
-0.985
-0.97
-0.985
-0.975
-0.98
-0.98
-0.97
-0.97
-0.965
-0.97
-0.945
-0.925
-0.92
-0.915
-0.91
-0.905
-0.92
-0.905
-0.895
-0.88
-0.865
-0.845
-0.83
-0.81
-0.775
-0.765
-0.755
-0.755
-0.745
-0.73
-0.705
-0.7
-0.665
-0.65
-0.62
-0.595
-0.555
-0.535
-0.51
-0.52
-0.485
-0.495
-0.485
-0.465
-0.44
-0.425
-0.4
-0.375
-0.36
-0.34
-0.33
-0.345
-0.345
-0.35
-0.36
-0.36
-0.37
-0.385
-0.4
-0.395
-0.41
-0.45
-0.475
-0.51
-0.535
-0.585
-0.615
-0.645
-0.67
-0.695
-0.715
-0.73
-0.745
-0.77
-0.78
-0.79
-0.825
-0.855
-0.88
-0.895
-0.905
-0.885
-0.885
-0.89
-0.895
-0.905
-0.9
-0.92
-0.925
-0.935
-0.94
-0.935
-0.935
-0.94
-0.95
-0.95
-0.925
-0.93
-0.93
-0.93
-0.935
-0.95
-0.95
-0.94
-0.935
-0.915
-0.91
-0.905
-0.89
-0.885
-0.89
-0.885
-0.9
-0.895
-0.9
-0.905
-0.885
-0.89
-0.88
-0.865
-0.865
-0.865
-0.855
-0.86
-0.865
-0.88
-0.89
-0.885
-0.885
-0.89
-0.86
-0.865
-0.84
-0.84
-0.85
-0.845
-0.86
-0.865
-0.88
-0.885
-0.875
-0.88
-0.875
-0.88
-0.87
-0.86
-0.89
-0.89
-0.895
-0.895
-0.89
-0.905
-0.905
-0.89
-0.89
-0.9
-0.88
-0.89
-0.895
-0.895
-0.895
-0.89
-0.905
-0.92
-0.925
-0.915
-0.9
-0.895
-0.885
-0.885
-0.9
-0.9
-0.92
-0.9
-0.915
-0.94
-0.915
-0.92
-0.905
-0.9
-0.885
-0.89
-0.9
-0.91
-0.9
-0.92
-0.925
-0.925
-0.915
-0.925
-0.905
-0.895
-0.89
-0.885
-0.885
-0.895
-0.895
-0.915
-0.9
-0.89
-0.875
-0.835
-0.81
-0.79
-0.775
-0.765
-0.76
-0.745
-0.735
-0.73
-0.71
-0.68
-0.635
-0.595
-0.565
-0.54
-0.55
-0.545
-0.575
-0.585
-0.595
-0.59
-0.615
-0.635
-0.655
-0.7
-0.75
-0.795
-0.84
-0.89
-0.91
-0.95
-0.955
-0.95
-0.96
-0.965
-0.955
-0.945
-0.945
-0.95
-0.94
-0.935
-0.94
-0.955
-0.97
-0.975
-0.975
-0.975
-0.97
-0.96
-0.96
-0.96
-0.96
-0.94
-0.945
-0.93
-0.965
-0.96
-0.955
-0.97
-0.995
-1.015
-0.99
-0.955
-0.87
-0.725
-0.495
-0.215
0.145
0.525
0.84
1.095
1.205
1.235
1.145
0.945
0.645
0.15
-0.365
-0.795
-1.04
-1.07
-0.98
-0.85
-0.76
-0.695
-0.715
-0.77
-0.83
-0.875
-0.925
-0.94
-0.94
-0.95
-0.955
-0.955
-0.955
-0.965
-0.955
-0.955
-0.965
-0.97
-0.985
-0.98
-0.99
-0.975
-0.98
-0.98
-0.985
-0.975
-0.985
-0.96
-0.945
-0.95
-0.975
-0.98
-0.975
-0.98
-0.985
-0.995
-0.975
-0.99
-0.965
-0.96
-0.945
-0.945
-0.96
-0.95
-0.955
-0.96
-0.965
-0.97
-0.95
-0.955
-0.935
-0.93
-0.91
-0.895
-0.905
-0.925
-0.91
-0.92
-0.91
-0.9
-0.91
-0.875
-0.855
-0.83
-0.81
-0.79
-0.78
-0.775
-0.795
-0.79
-0.76
-0.74
-0.735
-0.72
-0.69
-0.665
-0.615
-0.605
-0.605
-0.58
-0.57
-0.545
-0.54
-0.51
-0.505
-0.47
-0.425
-0.405
-0.365
-0.365
-0.355
-0.345
-0.35
-0.34
-0.325
-0.34
-0.335
-0.315
-0.295
-0.305
-0.31
-0.33
-0.355
-0.39
-0.425
-0.465
-0.48
-0.515
-0.56
-0.59
-0.62
-0.635
-0.645
-0.68
-0.705
-0.725
-0.75
-0.79
-0.81
-0.825
-0.84
-0.845
-0.845
-0.84
-0.855
-0.86
-0.88
-0.9
-0.9
-0.91
-0.925
-0.93
-0.94
-0.925
-0.925
-0.905
-0.895
-0.895
-0.905
-0.9
-0.91
-0.925
-0.93
-0.93
-0.93
-0.915
-0.9
-0.89
-0.915
-0.905
-0.875
-0.87
-0.875
-0.885
-0.89
-0.915
-0.905
-0.905
-0.89
-0.88
-0.84
-0.785
-0.7
-0.6
-0.46
-0.31
-0.155
0.01
0.205
0.38
0.59
0.82
1.04
1.26
1.475
1.635
1.76
1.865
1.91
1.945
1.955
1.945
1.945
1.905
1.845
1.76
1.675
1.625
1.59
1.6
1.59
1.55
1.475
1.38
1.235
1.075
0.88
0.66
0.35
-0.03
-0.405
-0.735
-0.965
-1.08
-1.095
-1.115
-1.075
-1.065
-1.08
-1.095
-1.155
-1.21
-1.25
-1.295
-1.315
-1.33
-1.335
-1.34
-1.345
-1.375
-1.38
-1.375
-1.38
-1.39
-1.41
-1.435
-1.45
-1.465
-1.455
-1.45
-1.44
-1.435
-1.42
-1.415
-1.41
-1.425
-1.42
-1.435
-1.45
-1.435
-1.42
-1.425
-1.405
-1.385
-1.38
-1.39
-1.415
-1.445
-1.475
-1.51
-1.52
-1.54
-1.575
-1.625
-1.675
-1.73
-1.795
-1.865
-1.93
-1.995
-2.07
-2.12
-2.135
-2.155
-2.175
-2.18
-2.205
-2.23
-2.235
-2.24
-2.265
-2.295
-2.325
-2.345
-2.365
-2.355
-2.365
-2.35
-2.35
-2.345
-2.33
-2.31
-2.305
-2.285
-2.255
-2.225
-2.2
-2.175
-2.13
-2.08
-2.03
-1.985
-1.94
-1.88
-1.835
-1.775
-1.725
-1.67
-1.63
-1.6
-1.52
-1.465
-1.425
-1.375
-1.35
-1.31
-1.29
-1.25
-1.25
-1.245
-1.24
-1.225
-1.225
-1.21
-1.195
-1.19
-1.185
-1.18
-1.195
-1.19
-1.205
-1.2
-1.21
-1.22
-1.205
-1.205
-1.21
-1.21
-1.175
-1.175
-1.175
-1.19
-1.2
-1.205
-1.215
-1.21
-1.18
-1.185
-1.17
-1.16
-1.14
-1.135
-1.14
-1.16
-1.16
-1.16
-1.16
-1.165
-1.14
-1.135
-1.135
-1.115
-1.12
-1.1
-1.09
-1.105
-1.105
-1.11
-1.115
-1.12
-1.12
-1.115
-1.085
-1.09
-1.075
-1.085
-1.08
-1.09
-1.085
-1.1
-1.1
-1.11
-1.1
-1.08
-1.07
-1.06
-1.06
-1.065
-1.065
-1.07
-1.085
-1.095
-1.09
-1.085
-1.08
-1.075
-1.055
-1.06
-1.05
-1.045
-1.045
-1.06
-1.055
-1.065
-1.075
-1.075
-1.055
-1.045
-1.045
-1.05
-1.04
-1.035
-1.02
-1.03
-1.03
-1.04
-1.05
-1.045
-1.045
-1.03
-1.025
-1.03
-1.02
-1.0
-1.02
-1.025
-1.035
-1.035
-1.05
-1.04
-1.04
-1.04
-1.015
-1.01
-0.995
-0.98
-0.995
-1.005
-1.01
-1.03
-1.035
-1.03
-1.03
-1.02
-1.025
-0.995
-0.995
-0.99
-0.98
-0.98
-1.0
-1.015
-1.025
-1.04
-1.025
-1.01
-1.005
-1.0
-0.965
-0.97
-0.965
-0.985
-1.0
-1.0
-0.985
-0.99
-0.99
-0.98
-0.965
-0.96
-0.96
-0.95
-0.965
-0.96
-0.96
-0.97
-0.98
-0.98
-0.975
-0.98
-0.975
-0.95
-0.95
-0.94
-0.945
-0.955
-0.955
-0.965
-0.97
-0.965
-0.97
-0.95
-0.925
-0.94
-0.935
-0.93
-0.935
-0.945
-0.96
-0.945
-0.96
-0.97
-0.965
-0.95
-0.94
-0.935
-0.915
-0.91
-0.925
-0.925
-0.92
-0.92
-0.94
-0.935
-0.94
-0.925
-0.92
-0.935
-0.92
-0.9
-0.905
-0.91
-0.915
-0.92
-0.925
-0.92
-0.92
-0.93
-0.915
-0.905
-0.9
-0.89
-0.905
-0.88
-0.88
-0.9
-0.905
-0.91
-0.92
-0.91
-0.9
-0.89
-0.89
-0.89
-0.87
-0.895
-0.9
-0.895
-0.905
-0.91
-0.905
-0.91
-0.9
-0.895
-0.89
-0.86
-0.875
-0.875
-0.89
-0.905
-0.89
-0.9
-0.9
-0.895
-0.88
-0.89
-0.87
-0.87
-0.875
-0.875
-0.885
-0.895
-0.895
-0.875
-0.885
-0.885
-0.855
-0.84
-0.84
-0.82
-0.81
-0.805
-0.785
-0.77
-0.755
-0.735
-0.735
-0.73
-0.705
-0.68
-0.64
-0.58
-0.545
-0.51
-0.505
-0.535
-0.555
-0.575
-0.565
-0.555
-0.545
-0.535
-0.53
-0.545
-0.595
-0.66
-0.72
-0.78
-0.82
-0.865
-0.895
-0.885
-0.88
-0.875
-0.855
-0.86
-0.85
-0.865
-0.88
-0.9
-0.895
-0.91
-0.92
-0.89
-0.89
-0.885
-0.87
-0.865
-0.88
-0.89
-0.9
-0.905
-0.9
-0.92
-0.935
-0.96
-0.935
-0.875
-0.785
-0.625
-0.41
-0.125
0.2
0.56
0.88
1.165
1.315
1.37
1.33
1.21
0.96
0.605
0.125
-0.385
-0.785
-0.98
-1.015
-0.89
-0.765
-0.65
-0.605
-0.645
-0.695
-0.74
-0.825
-0.855
-0.895
-0.905
-0.895
-0.89
-0.895
-0.92
-0.905
-0.895
-0.89
-0.9
-0.9
-0.91
-0.915
-0.92
-0.925
-0.945
-0.94
-0.96
-0.955
-0.935
-0.935
-0.925
-0.925
-0.915
-0.925
-0.945
-0.945
-0.945
-0.94
-0.935
-0.925
-0.92
-0.91
-0.92
-0.905
-0.905
-0.915
-0.935
-0.945
-0.93
-0.94
-0.93
-0.91
-0.9
-0.895
-0.865
-0.87
-0.88
-0.875
-0.89
-0.885
-0.89
-0.88
-0.885
-0.87
-0.845
-0.83
-0.83
-0.835
-0.845
-0.845
-0.82
-0.81
-0.82
-0.825
-0.8
-0.755
-0.74
-0.71
-0.69
-0.68
-0.665
-0.64
-0.65
-0.635
-0.615
-0.615
-0.59
-0.56
-0.535
-0.52
-0.495
-0.485
-0.455
-0.445
-0.445
-0.435
-0.415
-0.41
-0.39
-0.36
-0.345
-0.335
-0.3
-0.295
-0.28
-0.295
-0.3
-0.3
-0.305
-0.325
-0.325
-0.35
-0.35
-0.38
-0.39
-0.41
-0.455
-0.485
-0.51
-0.54
-0.57
-0.605
-0.615
-0.64
-0.64
-0.675
-0.66
-0.68
-0.715
-0.72
-0.745
-0.755
-0.765
-0.785
-0.775
-0.785
-0.795
-0.785
-0.78
-0.785
-0.79
-0.79
-0.79
-0.78
-0.795
-0.805
-0.795
-0.79
-0.785
-0.77
-0.765
-0.775
-0.77
-0.78
-0.785
-0.78
-0.785
-0.78
-0.785
-0.775
-0.755
-0.74
-0.745
-0.74
-0.75
-0.75
-0.76
-0.77
-0.785
-0.775
-0.775
-0.745
-0.74
-0.73
-0.725
-0.72
-0.72
-0.74
-0.775
-0.77
-0.765
-0.78
-0.79
-0.775
-0.765
-0.76
-0.755
-0.76
-0.775
-0.775
-0.8
-0.8
-0.785
-0.81
-0.805
-0.8
-0.8
-0.79
-0.785
-0.785
-0.795
-0.81
-0.82
-0.825
-0.835
-0.85
-0.86
-0.835
-0.825
-0.81
-0.81
-0.805
-0.83
-0.84
-0.845
-0.845
-0.855
-0.865
-0.855
-0.845
-0.84
-0.835
-0.825
-0.83
-0.83
-0.835
-0.84
-0.84
-0.85
-0.85
-0.86
-0.84
-0.85
-0.83
-0.825
-0.84
-0.835
-0.85
-0.855
-0.865
-0.865
-0.86
-0.86
-0.845
-0.835
-0.84
-0.84
-0.835
-0.835
-0.84
-0.85
-0.845
-0.84
-0.83
-0.79
-0.775
-0.745
-0.725
-0.71
-0.69
-0.68
-0.675
-0.67
-0.635
-0.585
-0.555
-0.52
-0.5
-0.49
-0.51
-0.51
-0.515
-0.52
-0.53
-0.56
-0.59
-0.635
-0.685
-0.735
-0.78
-0.825
-0.85
-0.845
-0.86
-0.885
-0.9
-0.915
-0.905
-0.89
-0.905
-0.895
-0.9
-0.9
-0.895
-0.9
-0.905
-0.905
-0.915
-0.92
-0.92
-0.935
-0.935
-0.925
-0.92
-0.9
-0.89
-0.885
-0.875
-0.875
-0.88
-0.91
-0.93
-0.97
-0.99
-0.95
-0.86
-0.695
-0.465
-0.16
0.205
0.59
0.945
1.175
1.31
1.315
1.195
0.965
0.585
0.075
-0.435
-0.825
-1.025
-1.04
-0.92
-0.79
-0.7
-0.66
-0.68
-0.74
-0.81
-0.85
-0.89
-0.89
-0.895
-0.885
-0.89
-0.9
-0.905
-0.92
-0.95
-0.925
-0.915
-0.905
-0.915
-0.915
-0.905
-0.9
-0.925
-0.935
-0.935
-0.935
-0.94
-0.945
-0.92
-0.915
-0.92
-0.93
-0.92
-0.94
-0.935
-0.95
-0.96
-0.97
-0.955
-0.95
-0.935
-0.935
-0.925
-0.9
-0.905
-0.895
-0.92
-0.925
-0.93
-0.93
-0.93
-0.915
-0.91
-0.9
-0.89
-0.86
-0.855
-0.855
-0.845
-0.855
-0.86
-0.84
-0.855
-0.83
-0.815
-0.785
-0.78
-0.755
-0.75
-0.745
-0.71
-0.715
-0.7
-0.685
-0.655
-0.655
-0.635
-0.605
-0.575
-0.535
-0.495
-0.495
-0.485
-0.465
-0.45
-0.45
-0.45
-0.435
-0.395
-0.375
-0.345
-0.35
-0.35
-0.335
-0.345
-0.33
-0.325
-0.33
-0.335
-0.355
-0.345
-0.35
-0.36
-0.38
-0.395
-0.425
-0.455
-0.495
-0.55
-0.585
-0.62
-0.645
-0.665
-0.71
-0.71
-0.715
-0.73
-0.77
-0.79
-0.815
-0.845
-0.865
-0.885
-0.885
-0.895
-0.89
-0.89
-0.88
-0.895
-0.905
-0.905
-0.915
-0.92
-0.93
-0.935
-0.945
-0.94
-0.925
-0.925
-0.9
-0.925
-0.93
-0.91
-0.91
-0.915
-0.92
-0.915
-0.915
-0.935
-0.9
-0.895
-0.885
-0.885
-0.88
-0.905
-0.905
-0.895
-0.905
-0.905
-0.885
-0.865
-0.865
-0.86
-0.835
-0.845
-0.84
-0.855
-0.875
-0.895
-0.88
-0.895
-0.905
-0.885
-0.87
-0.87
-0.88
-0.86
-0.875
-0.88
-0.87
-0.885
-0.89
-0.89
-0.905
-0.885
-0.875
-0.895
-0.875
-0.87
-0.875
-0.885
-0.905
-0.92
-0.94
-0.925
-0.92
-0.92
-0.905
-0.9
-0.88
-0.885
-0.895
-0.9
-0.905
-0.915
-0.925
-0.93
-0.93
-0.935
-0.925
-0.915
-0.905
-0.9
-0.895
-0.915
-0.925
-0.92
-0.935
-0.95
-0.955
-0.935
-0.92
-0.91
-0.895
-0.89
-0.89
-0.885
-0.88
-0.87
-0.865
-0.86
-0.83
-0.825
-0.805
-0.78
-0.76
-0.76
-0.74
-0.73
-0.705
-0.69
-0.645
-0.62
-0.585
-0.58
-0.575
-0.58
-0.585
-0.58
-0.6
-0.585
-0.605
-0.62
-0.655
-0.705
-0.74
-0.79
-0.83
-0.88
-0.9
-0.915
-0.935
-0.935
-0.94
-0.96
-0.96
-0.955
-0.96
-0.955
-0.955
-0.97
-0.95
-0.965
-0.965
-0.97
-0.98
-0.97
-0.975
-0.965
-0.97
-0.955
-0.935
-0.92
-0.915
-0.935
-0.945
-0.95
-0.985
-1.0
-1.03
-1.015
-1.0
-0.93
-0.805
-0.63
-0.385
-0.08
0.27
0.635
0.935
1.155
1.235
1.23
1.11
0.85
0.44
-0.09
-0.585
-0.93
-1.1
-1.07
-0.95
-0.82
-0.745
-0.735
-0.775
-0.83
-0.87
-0.915
-0.925
-0.93
-0.945
-0.945
-0.955
-0.96
-0.96
-0.965
-0.97
-0.965
-0.945
-0.94
-0.935
-0.935
-0.95
-0.955
-0.965
-0.965
-0.98
-1.0
-0.99
-0.985
-0.965
-0.98
-0.975
-0.985
-0.955
-0.955
-0.96
-0.96
-0.975
-0.96
-0.96
-0.97
-0.935
-0.945
-0.925
-0.92
-0.925
-0.915
-0.92
-0.93
-0.94
-0.955
-0.935
-0.945
-0.905
-0.89
-0.865
-0.855
-0.885
-0.885
-0.895
-0.865
-0.87
-0.86
-0.85
-0.83
-0.82
-0.79
-0.78
-0.765
-0.76
-0.755
-0.745
-0.755
-0.745
-0.725
-0.715
-0.69
-0.655
-0.64
-0.62
-0.585
-0.575
-0.565
-0.54
-0.535
-0.51
-0.505
-0.49
-0.47
-0.425
-0.42
-0.395
-0.38
-0.375
-0.37
-0.38
-0.36
-0.355
-0.345
-0.345
-0.33
-0.315
-0.315
-0.315
-0.325
-0.355
-0.4
-0.425
-0.475
-0.48
-0.52
-0.55
-0.58
-0.61
-0.625
-0.655
-0.675
-0.695
-0.745
-0.765
-0.785
-0.8
-0.825
-0.835
-0.84
-0.86
-0.86
-0.84
-0.845
-0.855
-0.88
-0.89
-0.9
-0.905
-0.895
-0.91
-0.925
-0.905
-0.905
-0.895
-0.895
-0.9
-0.905
-0.905
-0.935
-0.95
-0.94
-0.935
-0.94
-0.92
-0.895
-0.895
-0.885
-0.88
-0.885
-0.895
-0.9
-0.9
-0.89
-0.895
-0.895
-0.88
-0.875
-0.865
-0.85
-0.845
-0.84
-0.855
-0.865
-0.86
-0.855
-0.855
-0.855
-0.84
-0.835
-0.82
-0.825
-0.83
-0.83
-0.845
-0.845
-0.865
-0.86
-0.855
-0.865
-0.845
-0.845
-0.84
-0.845
-0.85
-0.865
-0.875
-0.88
-0.89
-0.91
-0.9
-0.88
-0.88
-0.89
-0.88
-0.86
-0.87
-0.88
-0.885
-0.9
-0.905
-0.915
-0.915
-0.92
-0.905
-0.89
-0.9
-0.9
-0.895
-0.905
-0.9
-0.915
-0.925
-0.935
-0.92
-0.915
-0.91
-0.91
-0.895
-0.895
-0.9
-0.905
-0.905
-0.93
-0.95
-0.96
-0.945
-0.925
-0.92
-0.915
-0.9
-0.895
-0.9
-0.9
-0.915
-0.93
-0.93
-0.9
-0.915
-0.9
-0.865
-0.815
-0.785
-0.78
-0.755
-0.745
-0.745
-0.74
-0.73
-0.715
-0.685
-0.655
-0.6
-0.555
-0.525
-0.535
-0.555
-0.575
-0.585
-0.6
-0.605
-0.605
-0.62
-0.62
-0.645
-0.68
-0.725
-0.795
-0.855
-0.915
-0.91
-0.92
-0.935
-0.955
-0.95
-0.95
-0.935
-0.95
-0.945
-0.94
-0.945
-0.955
-0.97
-0.975
-0.97
-0.985
-0.975
-0.98
-0.965
-0.955
-0.965
-0.97
-0.97
-0.965
-0.97
-0.975
-0.965
-0.96
-0.97
-0.965
-0.95
-0.985
-1.0
-1.005
-0.995
-0.93
-0.795
-0.615
-0.37
-0.03
0.34
0.725
1.05
1.265
1.35
1.34
1.19
0.92
0.48
-0.03
-0.555
-0.93
-1.085
-1.06
-0.925
-0.775
-0.705
-0.68
-0.71
-0.775
-0.855
-0.92
-0.95
-0.96
-0.97
-0.965
-0.95
-0.945
-0.93
-0.945
-0.95
-0.95
-0.955
-0.965
-0.985
-0.985
-0.985
-0.975
-0.965
-0.955
-0.955
-0.94
-0.945
-0.95
-0.97
-0.965
-0.975
-0.99
-0.985
-0.965
-0.965
-0.96
-0.955
-0.94
-0.94
-0.95
-0.955
-0.955
-0.96
-0.96
-0.95
-0.955
-0.945
-0.94
-0.93
-0.935
-0.93
-0.925
-0.92
-0.92
-0.925
-0.915
-0.9
-0.89
-0.885
-0.855
-0.84
-0.845
-0.825
-0.815
-0.84
-0.835
-0.835
-0.83
-0.785
-0.775
-0.75
-0.73
-0.71
-0.68
-0.66
-0.635
-0.625
-0.62
-0.615
-0.59
-0.56
-0.55
-0.505
-0.495
-0.465
-0.42
-0.41
-0.395
-0.385
-0.375
-0.36
-0.36
-0.335
-0.32
-0.295
-0.28
-0.27
-0.27
-0.275
-0.26
-0.28
-0.31
-0.33
-0.35
-0.37
-0.38
-0.41
-0.435
-0.47
-0.485
-0.525
-0.55
-0.59
-0.625
-0.655
-0.695
-0.72
-0.73
-0.745
-0.755
-0.775
-0.775
-0.795
-0.805
-0.82
-0.835
-0.855
-0.87
-0.88
-0.875
-0.865
-0.86
-0.865
-0.86
-0.865
-0.875
-0.875
-0.89
-0.895
-0.89
-0.895
-0.91
-0.88
-0.88
-0.855
-0.86
-0.855
-0.855
-0.87
-0.88
-0.895
-0.89
-0.88
-0.875
-0.865
-0.845
-0.835
-0.83
-0.835
-0.835
-0.835
-0.835
-0.855
-0.88
-0.875
-0.86
-0.85
-0.835
-0.835
-0.82
-0.825
-0.825
-0.84
-0.845
-0.84
-0.855
-0.875
-0.88
-0.865
-0.87
-0.845
-0.84
-0.86
-0.84
-0.855
-0.865
-0.865
-0.875
-0.885
-0.875
-0.87
-0.89
-0.84
-0.855
-0.87
-0.855
-0.87
-0.88
-0.885
-0.885
-0.885
-0.88
-0.875
-0.875
-0.875
-0.87
-0.88
-0.9
-0.895
-0.89
-0.91
-0.905
-0.915
-0.9
-0.895
-0.89
-0.87
-0.875
-0.875
-0.89
-0.885
-0.9
-0.905
-0.92
-0.925
-0.925
-0.9
-0.885
-0.895
-0.875
-0.88
-0.88
-0.885
-0.895
-0.905
-0.905
-0.9
-0.895
-0.88
-0.85
-0.86
-0.845
-0.85
-0.825
-0.82
-0.815
-0.81
-0.78
-0.785
-0.76
-0.735
-0.71
-0.69
-0.66
-0.635
-0.595
-0.575
-0.575
-0.545
-0.56
-0.57
-0.58
-0.575
-0.56
-0.56
-0.565
-0.6
-0.64
-0.69
-0.765
-0.835
-0.875
-0.91
-0.925
-0.925
-0.91
-0.905
-0.895
-0.915
-0.925
-0.93
-0.93
-0.95
-0.95
-0.96
-0.955
-0.95
-0.945
-0.945
-0.925
-0.925
-0.95
-0.955
-0.96
-0.965
-0.97
-0.975
-0.97
-0.94
-0.93
-0.915
-0.925
-0.93
-0.965
-0.99
-1.02
-1.02
-0.94
-0.835
-0.645
-0.38
-0.045
0.33
0.69
0.985
1.19
1.27
1.225
1.07
0.79
0.335
-0.19
-0.7
-1.03
-1.13
-1.085
-0.94
-0.8
-0.725
-0.71
-0.755
-0.845
-0.89
-0.925
-0.95
-0.945
-0.93
-0.925
-0.925
-0.95
-0.94
-0.97
-0.98
-0.99
-0.99
-0.995
-0.975
-0.97
-0.965
-0.955
-0.98
-0.99
-0.99
-1.01
-1.01
-1.005
-1.0
-0.99
-0.985
-0.985
-0.975
-0.95
-0.97
-0.97
-0.98
-0.99
-1.02
-1.0
-0.995
-0.985
-0.985
-0.96
-0.95
-0.935
-0.94
-0.95
-0.94
-0.965
-0.965
-0.96
-0.95
-0.945
-0.915
-0.915
-0.88
-0.865
-0.86
-0.845
-0.865
-0.875
-0.875
-0.855
-0.845
-0.83
-0.82
-0.79
-0.785
-0.75
-0.73
-0.715
-0.71
-0.68
-0.68
-0.66
-0.655
-0.61
-0.575
-0.555
-0.51
-0.49
-0.47
-0.465
-0.465
-0.445
-0.44
-0.415
-0.405
-0.405
-0.375
-0.355
-0.335
-0.315
-0.31
-0.32
-0.325
-0.33
-0.355
-0.355
-0.385
-0.405
-0.42
-0.435
-0.47
-0.49
-0.535
-0.57
-0.62
-0.645
-0.675
-0.725
-0.75
-0.775
-0.775
-0.81
-0.82
-0.83
-0.85
-0.865
-0.88
-0.9
-0.91
-0.93
-0.925
-0.925
-0.93
-0.92
-0.91
-0.91
-0.925
-0.935
-0.94
-0.955
-0.955
-0.97
-0.975
-0.97
-0.955
-0.945
-0.945
-0.94
-0.935
-0.935
-0.945
-0.975
-0.975
-0.965
-0.96
-0.955
-0.935
-0.935
-0.945
-0.945
-0.935
-0.945
-0.945
-0.95
-0.94
-0.91
-0.915
-0.925
-0.92
-0.895
-0.9
-0.895
-0.89
-0.885
-0.89
-0.92
-0.91
-0.92
-0.935
-0.93
-0.905
-0.89
-0.895
-0.875
-0.89
-0.9
-0.895
-0.91
-0.925
-0.925
-0.935
-0.935
-0.925
-0.925
-0.925
-0.91
-0.905
-0.925
-0.935
-0.945
-0.955
-0.96
-0.965
-0.975
-0.96
-0.95
-0.92
-0.91
-0.915
-0.925
-0.925
-0.945
-0.945
-0.94
-0.965
-0.96
-0.965
-0.965
-0.965
-0.94
-0.945
-0.945
-0.96
-0.97
-0.985
-0.975
-0.965
-0.965
-0.945
-0.935
-0.915
-0.895
-0.88
-0.885
-0.86
-0.86
-0.855
-0.845
-0.845
-0.815
-0.8
-0.775
-0.74
-0.69
-0.655
-0.625
-0.605
-0.61
-0.62
-0.62
-0.645
-0.645
-0.655
-0.655
-0.655
-0.675
-0.735
-0.775
-0.83
-0.88
-0.94
-0.955
-0.99
-0.98
-0.98
-0.975
-0.97
-0.965
-0.985
-0.99
-1.005
-1.005
-1.02
-1.03
-1.035
-1.02
-1.01
-0.995
-0.995
-0.98
-0.995
-0.99
-1.02
-1.015
-1.01
-1.005
-1.02
-1.015
-1.01
-1.0
-0.98
-0.995
-1.03
-1.035
-1.02
-1.0
-0.93
-0.795
-0.595
-0.355
-0.025
0.35
0.7
0.975
1.14
1.2
1.18
1.045
0.775
0.385
-0.11
-0.62
-0.99
-1.16
-1.145
-1.02
-0.875
-0.785
-0.74
-0.79
-0.84
-0.91
-0.98
-1.0
-1.02
-1.025
-1.025
-1.01
-1.0
-1.01
-1.02
-1.035
-1.035
-1.05
-1.08
-1.055
-1.055
-1.035
-1.02
-1.03
-1.03
-1.02
-1.035
-1.03
-1.04
-1.05
-1.06
-1.045
-1.04
-1.02
-1.03
-0.995
-1.0
-0.995
-1.015
-1.015
-1.03
-1.04
-1.02
-1.04
-1.04
-1.01
-1.0
-0.975
-0.99
-0.98
-0.985
-0.985
-1.01
-0.995
-0.995
-0.985
-0.975
-0.96
-0.94
-0.925
-0.915
-0.905
-0.905
-0.91
-0.91
-0.905
-0.905
-0.89
-0.865
-0.855
-0.83
-0.81
-0.8
-0.795
-0.785
-0.78
-0.77
-0.77
-0.745
-0.725
-0.705
-0.66
-0.64
-0.625
-0.595
-0.58
-0.575
-0.565
-0.54
-0.52
-0.505
-0.485
-0.445
-0.425
-0.395
-0.38
-0.38
-0.37
-0.375
-0.345
-0.345
-0.355
-0.355
-0.345
-0.34
-0.335
-0.34
-0.36
-0.375
-0.405
-0.44
-0.485
-0.52
-0.545
-0.58
-0.615
-0.645
-0.65
-0.705
-0.71
-0.735
-0.755
-0.795
-0.835
-0.845
-0.87
-0.87
-0.905
-0.9
-0.895
-0.895
-0.89
-0.905
-0.915
-0.92
-0.945
-0.955
-0.97
-0.975
-0.97
-0.97
-0.95
-0.94
-0.945
-0.945
-0.955
-0.965
-0.975
-0.965
-0.975
-0.97
-0.985
-0.985
-0.96
-0.935
-0.925
-0.925
-0.93
-0.94
-0.935
-0.95
-0.965
-0.96
-0.945
-0.93
-0.92
-0.925
-0.915
-0.905
-0.91
-0.925
-0.93
-0.93
-0.91
-0.91
-0.91
-0.905
-0.89
-0.88
-0.9
-0.885
-0.87
-0.88
-0.885
-0.89
-0.905
-0.895
-0.915
-0.885
-0.89
-0.885
-0.89
-0.89
-0.895
-0.9
-0.92
-0.935
-0.93
-0.925
-0.92
-0.92
-0.915
-0.9
-0.89
-0.885
-0.895
-0.905
-0.925
-0.93
-0.945
-0.95
-0.935
-0.935
-0.94
-0.93
-0.925
-0.915
-0.92
-0.92
-0.935
-0.945
-0.96
-0.955
-0.925
-0.935
-0.925
-0.915
-0.93
-0.935
-0.94
-0.945
-0.95
-0.96
-0.96
-0.95
-0.945
-0.975
-0.95
-0.95
-0.935
-0.925
-0.925
-0.925
-0.92
-0.94
-0.955
-0.955
-0.95
-0.935
-0.925
-0.92
-0.91
-0.905
-0.905
-0.915
-0.925
-0.925
-0.925
-0.92
-0.895
-0.89
-0.86
-0.82
-0.795
-0.775
-0.77
-0.775
-0.785
-0.755
-0.74
-0.73
-0.68
-0.64
-0.605
-0.58
-0.54
-0.53
-0.555
-0.575
-0.59
-0.615
-0.61
-0.635
-0.645
-0.67
-0.705
-0.755
-0.81
-0.86
-0.88
-0.92
-0.935
-0.955
-0.97
-0.96
-0.96
-0.95
-0.955
-0.96
-0.95
-0.94
-0.935
-0.945
-0.95
-0.96
-0.97
-0.965
-0.97
-0.96
-0.945
-0.94
-0.945
-0.925
-0.95
-0.95
-0.95
-0.95
-0.945
-0.955
-0.97
-0.995
-1.0
-0.995
-0.94
-0.83
-0.645
-0.375
-0.04
0.35
0.73
1.03
1.23
1.295
1.26
1.105
0.81
0.39
-0.125
-0.63
-0.95
-1.07
-1.04
-0.89
-0.775
-0.695
-0.675
-0.71
-0.77
-0.825
-0.875
-0.92
-0.93
-0.93
-0.94
-0.94
-0.93
-0.945
-0.925
-0.91
-0.935
-0.92
-0.945
-0.94
-0.945
-0.96
-0.96
-0.96
-0.975
-0.97
-0.945
-0.945
-0.93
-0.945
-0.955
-0.955
-0.955
-0.96
-0.97
-0.985
-0.975
-0.95
-0.965
-0.945
-0.93
-0.925
-0.93
-0.925
-0.95
-0.945
-0.96
-0.975
-0.965
-0.945
-0.94
-0.915
-0.91
-0.89
-0.89
-0.885
-0.89
-0.88
-0.89
-0.875
-0.885
-0.86
-0.85
-0.815
-0.81
-0.8
-0.79
-0.77
-0.775
-0.78
-0.76
-0.745
-0.715
-0.69
-0.675
-0.655
-0.62
-0.595
-0.57
-0.555
-0.545
-0.55
-0.525
-0.515
-0.48
-0.455
-0.425
-0.395
-0.37
-0.355
-0.355
-0.335
-0.34
-0.31
-0.32
-0.295
-0.29
-0.27
-0.27
-0.245
-0.235
-0.24
-0.275
-0.305
-0.31
-0.33
-0.375
-0.405
-0.435
-0.44
-0.475
-0.485
-0.52
-0.54
-0.585
-0.615
-0.645
-0.69
-0.715
-0.745
-0.755
-0.755
-0.77
-0.775
-0.785
-0.8
-0.795
-0.815
-0.85
-0.845
-0.87
-0.86
-0.885
-0.88
-0.86
-0.855
-0.86
-0.85
-0.85
-0.865
-0.88
-0.865
-0.865
-0.875
-0.87
-0.865
-0.86
-0.845
-0.84
-0.83
-0.835
-0.84
-0.845
-0.85
-0.855
-0.855
-0.845
-0.855
-0.835
-0.82
-0.82
-0.81
-0.805
-0.815
-0.815
-0.825
-0.83
-0.83
-0.82
-0.815
-0.795
-0.805
-0.775
-0.79
-0.78
-0.79
-0.8
-0.805
-0.825
-0.83
-0.83
-0.835
-0.815
-0.805
-0.815
-0.795
-0.805
-0.83
-0.855
-0.84
-0.85
-0.855
-0.865
-0.85
-0.86
-0.855
-0.84
-0.845
-0.855
-0.86
-0.86
-0.865
-0.885
-0.87
-0.865
-0.88
-0.875
-0.87
-0.86
-0.85
-0.855
-0.855
-0.875
-0.88
-0.89
-0.885
-0.89
-0.885
-0.87
-0.875
-0.86
-0.855
-0.86
-0.865
-0.86
-0.885
-0.885
-0.905
-0.9
-0.9
-0.905
-0.9
-0.875
-0.87
-0.865
-0.865
-0.895
-0.885
-0.9
-0.9
-0.895
-0.9
-0.9
-0.9
-0.885
-0.86
-0.86
-0.86
-0.855
-0.855
-0.85
-0.85
-0.835
-0.82
-0.785
-0.745
-0.73
-0.735
-0.725
-0.7
-0.685
-0.655
-0.61
-0.58
-0.545
-0.525
-0.52
-0.525
-0.53
-0.54
-0.545
-0.545
-0.565
-0.595
-0.63
-0.68
-0.73
-0.775
-0.81
-0.87
-0.875
-0.885
-0.895
-0.9
-0.9
-0.9
-0.925
-0.93
-0.94
-0.935
-0.935
-0.94
-0.93
-0.925
-0.945
-0.935
-0.935
-0.94
-0.945
-0.955
-0.945
-0.94
-0.925
-0.92
-0.93
-0.92
-0.93
-0.925
-0.925
-0.935
-0.94
-0.945
-0.975
-1.005
-1.01
-0.99
-0.925
-0.78
-0.605
-0.355
-0.02
0.375
0.74
1.02
1.215
1.285
1.235
1.02
0.675
0.165
-0.39
-0.84
-1.075
-1.11
-1.01
-0.87
-0.755
-0.705
-0.71
-0.78
-0.82
-0.87
-0.92
-0.94
-0.96
-0.955
-0.965
-0.975
-0.97
-0.955
-0.96
-0.955
-0.96
-0.955
-0.955
-0.975
-0.97
-0.97
-0.97
-0.995
-0.99
-0.97
-0.965
-0.97
-0.97
-0.95
-0.96
-0.97
-0.965
-0.975
-0.985
-0.99
-0.985
-0.985
-0.955
-0.955
-0.95
-0.95
-0.94
-0.945
-0.935
-0.945
-0.96
-0.955
-0.945
-0.945
-0.915
-0.915
-0.91
-0.91
-0.91
-0.91
-0.9
-0.9
-0.905
-0.89
-0.885
-0.87
-0.86
-0.825
-0.805
-0.79
-0.79
-0.785
-0.79
-0.785
-0.775
-0.765
-0.73
-0.7
-0.665
-0.65
-0.62
-0.59
-0.58
-0.565
-0.55
-0.54
-0.525
-0.51
-0.48
-0.46
-0.43
-0.4
-0.37
-0.345
-0.33
-0.33
-0.33
-0.35
-0.34
-0.33
-0.33
-0.325
-0.335
-0.35
-0.365
-0.37
-0.405
-0.445
-0.49
-0.525
-0.565
-0.605
-0.65
-0.68
-0.68
-0.705
-0.73
-0.735
-0.76
-0.795
-0.81
-0.84
-0.855
-0.87
-0.88
-0.875
-0.89
-0.885
-0.905
-0.89
-0.905
-0.915
-0.93
-0.935
-0.955
-0.955
-0.95
-0.945
-0.93
-0.915
-0.915
-0.915
-0.925
-0.91
-0.92
-0.94
-0.945
-0.935
-0.905
-0.915
-0.91
-0.91
-0.89
-0.885
-0.885
-0.9
-0.905
-0.905
-0.905
-0.9
-0.9
-0.9
-0.89
-0.87
-0.875
-0.875
-0.87
-0.855
-0.875
-0.875
-0.88
-0.885
-0.88
-0.89
-0.88
-0.875
-0.88
-0.88
-0.875
-0.885
-0.9
-0.89
-0.89
-0.895
-0.915
-0.905
-0.905
-0.895
-0.88
-0.865
-0.88
-0.9
-0.905
-0.925
-0.935
-0.935
-0.935
-0.925
-0.92
-0.92
-0.91
-0.895
-0.895
-0.925
-0.91
-0.92
-0.92
-0.94
-0.945
-0.93
-0.935
-0.905
-0.91
-0.92
-0.9
-0.915
-0.925
-0.925
-0.92
-0.945
-0.93
-0.945
-0.93
-0.935
-0.92
-0.91
-0.91
-0.9
-0.895
-0.855
-0.855
-0.855
-0.825
-0.795
-0.795
-0.765
-0.75
-0.73
-0.705
-0.68
-0.65
-0.62
-0.605
-0.56
-0.55
-0.555
-0.57
-0.555
-0.555
-0.545
-0.545
-0.555
-0.59
-0.625
-0.675
-0.705
-0.765
-0.81
-0.845
-0.885
-0.895
-0.89
-0.905
-0.9
-0.905
-0.915
-0.91
-0.93
-0.935
-0.925
-0.925
-0.91
-0.915
-0.91
-0.915
-0.915
-0.925
-0.935
-0.955
-0.945
-0.94
-0.93
-0.925
-0.935
-0.92
-0.905
-0.915
-0.915
-0.905
-0.92
-0.93
-0.945
-0.955
-1.0
-0.98
-0.97
-0.925
-0.8
-0.66
-0.46
-0.18
0.175
0.535
0.87
1.135
1.295
1.36
1.32
1.165
0.865
0.41
-0.15
-0.635
-0.97
-1.075
-1.01
-0.865
-0.725
-0.655
-0.645
-0.675
-0.73
-0.8
-0.86
-0.875
-0.92
-0.9
-0.9
-0.895
-0.9
-0.91
-0.905
-0.89
-0.885
-0.89
-0.895
-0.91
-0.91
-0.92
-0.915
-0.915
-0.92
-0.91
-0.895
-0.895
-0.895
-0.905
-0.9
-0.895
-0.905
-0.92
-0.92
-0.945
-0.925
-0.905
-0.895
-0.89
-0.875
-0.885
-0.88
-0.89
-0.89
-0.905
-0.91
-0.91
-0.88
-0.885
-0.855
-0.855
-0.82
-0.835
-0.835
-0.845
-0.835
-0.84
-0.83
-0.835
-0.815
-0.79
-0.77
-0.75
-0.735
-0.73
-0.725
-0.73
-0.715
-0.725
-0.71
-0.705
-0.685
-0.66
-0.635
-0.62
-0.6
-0.575
-0.565
-0.545
-0.54
-0.52
-0.505
-0.495
-0.46
-0.425
-0.415
-0.4
-0.375
-0.34
-0.325
-0.315
-0.31
-0.3
-0.31
-0.3
-0.275
-0.265
-0.245
-0.215
-0.205
-0.2
-0.2
-0.23
-0.23
-0.25
-0.275
-0.295
-0.33
-0.335
-0.355
-0.38
-0.41
-0.43
-0.465
-0.5
-0.545
-0.57
-0.61
-0.63
-0.65
-0.665
-0.675
-0.69
-0.705
-0.725
-0.73
-0.75
-0.78
-0.79
-0.82
-0.825
-0.81
-0.805
-0.805
-0.79
-0.82
-0.825
-0.82
-0.815
-0.825
-0.825
-0.83
-0.83
-0.825
-0.82
-0.825
-0.825
-0.805
-0.805
-0.81
-0.81
-0.82
-0.815
-0.81
-0.795
-0.79
-0.79
-0.78
-0.765
-0.76
-0.775
-0.77
-0.77
-0.765
-0.77
-0.765
-0.725
-0.665
-0.565
-0.415
-0.27
-0.11
0.06
0.24
0.425
0.62
0.845
1.085
1.305
1.535
1.73
1.885
2.025
2.115
2.14
2.155
2.13
2.085
2.015
1.95
1.865
1.79
1.78
1.785
1.81
1.825
1.81
1.715
1.59
1.435
1.245
1.01
0.705
0.365
-0.015
-0.41
-0.73
-0.89
-0.99
-0.985
-0.97
-0.98
-0.98
-1.005
-1.075
-1.125
-1.165
-1.205
-1.22
-1.205
-1.22
-1.23
-1.265
-1.28
-1.32
-1.315
-1.335
-1.34
-1.35
-1.34
-1.36
-1.36
-1.365
-1.385
-1.39
-1.425
-1.43
-1.46
-1.46
-1.47
-1.48
-1.48
-1.485
-1.495
-1.495
-1.51
-1.51
-1.53
-1.535
-1.535
-1.545
-1.56
-1.55
-1.55
-1.53
-1.52
-1.525
-1.525
-1.51
-1.53
-1.56
-1.6
-1.63
-1.665
-1.685
-1.705
-1.73
-1.75
-1.82
-1.875
-1.95
-2.02
-2.095
-2.16
-2.195
-2.24
-2.255
-2.26
-2.27
-2.255
-2.255
-2.265
-2.27
-2.27
-2.26
-2.235
-2.22
-2.185
-2.15
-2.095
-2.045
-1.975
-1.935
-1.89
-1.84
-1.785
-1.71
-1.66
-1.615
-1.56
-1.485
-1.45
-1.395
-1.32
-1.29
-1.255
-1.225
-1.225
-1.205
-1.195
-1.17
-1.145
-1.13
-1.11
-1.105
-1.095
-1.1
-1.095
-1.105
-1.105
-1.11
-1.12
-1.115
-1.12
-1.11
-1.1
-1.09
-1.075
-1.09
-1.085
-1.09
-1.11
-1.11
-1.125
-1.125
-1.135
-1.125
-1.11
-1.085
-1.075
-1.075
-1.08
-1.095
-1.095
-1.105
-1.095
-1.105
-1.08
-1.06
-1.06
-1.045
-1.035
-1.035
-1.05
-1.065
-1.045
-1.07
-1.08
-1.07
-1.055
-1.055
-1.05
-1.045
-1.045
-1.045
-1.03
-1.05
-1.06
-1.065
-1.07
-1.065
-1.07
-1.06
-1.05
-1.05
-1.03
-1.03
-1.025
-1.045
-1.05
-1.06
-1.045
-1.04
-1.04
-1.04
-1.01
-1.02
-1.015
-1.025
-1.015
-1.04
-1.045
-1.045
-1.04
-1.055
-1.05
-1.04
-1.02
-1.02
-1.015
-1.015
-1.005
-1.015
-1.025
-1.04
-1.04
-1.04
-1.035
-1.04
-1.015
-1.015
-1.0
-0.98
-1.01
-1.01
-1.02
-1.03
-1.025
-1.03
-1.02
-1.025
-1.01
-1.015
-1.0
-0.995
-1.01
-1.025
-1.035
-1.02
-1.025
-1.035
-1.02
-1.02
-0.98
-0.99
-0.975
-0.99
-1.0
-1.015
-1.035
-1.03
-1.03
-1.025
-1.025
-1.005
-1.005
-1.0
-1.005
-0.99
-0.98
-0.985
-1.0
-1.01
-1.005
-1.015
-1.015
-1.0
-1.0
-0.985
-0.98
-0.975
-0.995
-0.99
-0.985
-0.98
-0.98
-1.005
-0.985
-1.005
-0.985
-0.98
-0.965
-0.97
-0.975
-0.98
-0.98
-1.0
-1.0
-0.995
-1.005
-0.99
-0.97
-0.975
-0.955
-0.955
-0.95
-0.965
-0.985
-0.985
-0.985
-1.0
-0.975
-0.975
-0.96
-0.955
-0.945
-0.965
-0.965
-0.975
-0.995
-0.995
-0.985
-0.99
-0.975
-0.975
-0.97
-0.96
-0.945
-0.945
-0.96
-0.965
-0.975
-0.985
-0.98
-0.97
-0.965
-0.945
-0.945
-0.945
-0.955
-0.945
-0.945
-0.97
-0.965
-0.965
-0.975
-0.965
-0.985
-0.975
-0.965
-0.96
-0.94
-0.935
-0.935
-0.935
-0.95
-0.985
-0.98
-0.98
-0.96
-0.955
-0.915
-0.92
-0.92
-0.92
-0.915
-0.93
-0.94
-0.94
-0.96
-0.96
-0.955
-0.95
-0.935
-0.93
-0.925
-0.92
-0.92
-0.92
-0.93
-0.93
-0.94
-0.935
-0.925
-0.93
-0.92
-0.905
-0.895
-0.89
-0.9
-0.9
-0.915
-0.925
-0.945
-0.96
-0.95
-0.945
-0.925
-0.91
-0.92
-0.91
-0.92
-0.92
-0.925
-0.915
-0.92
-0.91
-0.885
-0.865
-0.825
-0.815
-0.785
-0.785
-0.775
-0.77
-0.78
-0.765
-0.75
-0.73
-0.705
-0.665
-0.615
-0.585
-0.57
-0.555
-0.565
-0.575
-0.62
-0.595
-0.595
-0.61
-0.6
-0.605
-0.635
-0.67
-0.705
-0.765
-0.84
-0.885
-0.92
-0.95
-0.95
-0.955
-0.97
-0.945
-0.945
-0.925
-0.915
-0.93
-0.935
-0.945
-0.96
-0.95
-0.95
-0.955
-0.96
-0.94
-0.94
-0.935
-0.935
-0.955
-0.97
-1.005
-1.02
-0.98
-0.9
-0.72
-0.485
-0.15
0.245
0.62
0.97
1.195
1.305
1.31
1.205
0.975
0.635
0.15
-0.375
-0.81
-1.045
-1.08
-0.965
-0.84
-0.72
-0.67
-0.695
-0.77
-0.84
-0.9
-0.94
-0.965
-0.95
-0.945
-0.92
-0.94
-0.93
-0.94
-0.955
-0.97
-0.985
-0.985
-0.995
-1.005
-1.0
-0.99
-0.98
-0.98
-0.985
-0.995
-0.99
-1.005
-1.01
-1.015
-1.005
-1.0
-0.985
-0.985
-0.985
-0.975
-0.98
-0.99
-0.995
-1.01
-1.03
-1.025
-1.025
-1.01
-0.99
-0.985
-0.99
-0.99
-1.015
-1.015
-1.015
-0.995
-1.015
-1.015
-0.995
-0.99
-0.96
-0.95
-0.935
-0.94
-0.935
-0.935
-0.935
-0.925
-0.935
-0.915
-0.905
-0.885
-0.865
-0.855
-0.83
-0.825
-0.805
-0.8
-0.795
-0.795
-0.785
-0.79
-0.765
-0.755
-0.72
-0.71
-0.67
-0.665
-0.65
-0.63
-0.635
-0.625
-0.61
-0.58
-0.575
-0.545
-0.52
-0.505
-0.49
-0.475
-0.455
-0.45
-0.455
-0.45
-0.455
-0.435
-0.405
-0.39
-0.375
-0.36
-0.36
-0.36
-0.38
-0.4
-0.405
-0.425
-0.465
-0.49
-0.505
-0.525
-0.54
-0.56
-0.575
-0.62
-0.64
-0.67
-0.68
-0.71
-0.74
-0.74
-0.75
-0.765
-0.775
-0.765
-0.765
-0.785
-0.785
-0.805
-0.83
-0.815
-0.825
-0.845
-0.84
-0.825
-0.825
-0.805
-0.8
-0.79
-0.79
-0.81
-0.805
-0.8
-0.815
-0.83
-0.815
-0.795
-0.805
-0.785
-0.775
-0.775
-0.765
-0.77
-0.77
-0.77
-0.795
-0.795
-0.79
-0.795
-0.79
-0.78
-0.755
-0.76
-0.735
-0.71
-0.615
-0.54
-0.425
-0.29
-0.11
0.045
0.245
0.45
0.67
0.89
1.11
1.32
1.52
1.705
1.845
1.975
2.08
2.155
2.19
2.2
2.18
2.12
2.035
1.945
1.86
1.785
1.75
1.745
1.775
1.81
1.82
1.77
1.69
1.55
1.36
1.17
0.945
0.69
0.37
0.015
-0.35
-0.69
-0.91
-1.02
-1.05
-1.03
-1.04
-1.03
-1.06
-1.1
-1.16
-1.22
-1.265
-1.26
-1.28
-1.29
-1.295
-1.305
-1.325
-1.34
-1.365
-1.375
-1.39
-1.4
-1.425
-1.435
-1.425
-1.445
-1.45
-1.455
-1.47
-1.475
-1.505
-1.52
-1.54
-1.545
-1.55
-1.575
-1.565
-1.59
-1.58
-1.605
-1.625
-1.635
-1.675
-1.68
-1.705
-1.705
-1.72
-1.715
-1.705
-1.695
-1.71
-1.705
-1.73
-1.745
-1.765
-1.775
-1.77
-1.785
-1.765
-1.765
-1.755
-1.755
-1.79
-1.815
-1.87
-1.9
-1.935
-1.955
-1.975
-2.01
-2.045
-2.08
-2.11
-2.16
-2.195
-2.235
-2.275
-2.3
-2.33
-2.33
-2.345
-2.325
-2.33
-2.285
-2.265
-2.235
-2.21
-2.185
-2.135
-2.11
-2.07
-2.025
-1.99
-1.94
-1.89
-1.82
-1.765
-1.705
-1.655
-1.58
-1.54
-1.48
-1.46
-1.41
-1.385
-1.35
-1.32
-1.285
-1.245
-1.225
-1.195
-1.17
-1.18
-1.18
-1.18
-1.18
-1.185
-1.185
-1.18
-1.175
-1.16
-1.16
-1.15
-1.15
-1.145
-1.145
-1.15
-1.155
-1.165
-1.15
-1.155
-1.15
-1.145
-1.145
-1.145
-1.135
-1.12
-1.11
-1.125
-1.13
-1.125
-1.14
-1.12
-1.12
-1.115
-1.1
-1.1
-1.09
-1.1
-1.09
-1.105
-1.1
-1.105
-1.115
-1.12
-1.09
-1.09
-1.09
-1.1
-1.07
-1.07
-1.075
-1.085
-1.09
-1.105
-1.1
-1.095
-1.115
-1.08
-1.075
-1.06
-1.055
-1.06
-1.065
-1.065
-1.075
-1.075
-1.08
-1.095
-1.09
-1.065
-1.07
-1.04
-1.045
-1.04
-1.05
-1.065
-1.07
-1.08
-1.085
-1.065
-1.06
-1.06
-1.05
-1.035
-1.025
-1.045
-1.04
-1.04
-1.045
-1.055
-1.065
-1.055
-1.05
-1.05
-1.035
-1.03
-1.025
-1.02
-1.03
-1.035
-1.045
-1.055
-1.045
-1.05
-1.04
-1.05
-1.02
-1.02
-1.02
-1.015
-1.025
-1.03
-1.04
-1.05
-1.035
-1.045
-1.04
-1.02
-1.015
-1.0
-1.0
-1.005
-0.995
-1.0
-1.03
-1.025
-1.03
-1.02
-1.02
-1.015
-1.01
-0.995
-0.995
-1.015
-1.005
-0.99
-0.995
-1.015
-1.005
-1.005
-1.0
-0.985
-0.98
-0.97
-0.97
-0.965
-0.98
-1.0
-1.0
-1.015
-1.005
-0.985
-0.995
-0.975
-0.965
-0.98
-0.955
-0.95
-0.955
-0.965
-0.965
-0.975
-0.985
-0.97
-0.965
-0.95
-0.94
-0.955
-0.93
-0.94
-0.94
-0.945
-0.965
-0.965
-0.96
-0.965
-0.95
-0.965
-0.94
-0.95
-0.935
-0.94
-0.93
-0.935
-0.95
-0.94
-0.95
-0.95
-0.945
-0.935
-0.93
-0.92
-0.935
-0.91
-0.915
-0.94
-0.94
-0.95
-0.95
-0.935
-0.945
-0.92
-0.92
-0.915
-0.9
-0.915
-0.915
-0.925
-0.92
-0.93
-0.925
-0.92
-0.92
-0.915
-0.9
-0.88
-0.88
-0.885
-0.895
-0.905
-0.915
-0.915
-0.935
-0.915
-0.905
-0.905
-0.905
-0.89
-0.89
-0.9
-0.895
-0.905
-0.915
-0.9
-0.925
-0.925
-0.925
-0.9
-0.905
-0.915
-0.875
-0.89
-0.895
-0.9
-0.895
-0.9
-0.9
-0.9
-0.9
-0.895
-0.88
-0.875
-0.885
-0.885
-0.87
-0.89
-0.88
-0.875
-0.9
-0.885
-0.89
-0.89
-0.88
-0.875
-0.855
-0.865
-0.86
-0.86
-0.865
-0.865
-0.87
-0.86
-0.85
-0.86
-0.85
-0.84
-0.86
-0.845
-0.84
-0.83
-0.83
-0.82
-0.825
-0.795
-0.78
-0.74
-0.705
-0.695
-0.685
-0.675
-0.66
-0.65
-0.63
-0.62
-0.57
-0.525
-0.51
-0.465
-0.47
-0.475
-0.485
-0.505
-0.525
-0.515
-0.525
-0.535
-0.585
-0.625
-0.68
-0.735
-0.78
-0.815
-0.84
-0.845
-0.855
-0.855
-0.865
-0.88
-0.89
-0.885
-0.895
-0.89
-0.885
-0.865
-0.855
-0.86
-0.865
-0.875
-0.885
-0.885
-0.88
-0.885
-0.88
-0.875
-0.89
-0.91
-0.935
-0.935
-0.885
-0.765
-0.585
-0.325
-0.015
0.365
0.755
1.065
1.285
1.365
1.325
1.16
0.84
0.405
-0.115
-0.6
-0.9
-0.99
-0.935
-0.805
-0.67
-0.605
-0.61
-0.67
-0.725
-0.805
-0.87
-0.89
-0.915
-0.92
-0.9
-0.905
-0.885
-0.86
-0.87
-0.87
-0.875
-0.9
-0.915
-0.92
-0.93
-0.91
-0.915
-0.895
-0.895
-0.905
-0.9
-0.895
-0.9
-0.91
-0.915
-0.925
-0.93
-0.93
-0.92
-0.905
-0.89
-0.89
-0.89
-0.89
-0.885
-0.895
-0.915
-0.91
-0.915
-0.92
-0.91
-0.895
-0.885
-0.875
-0.88
-0.88
-0.87
-0.89
-0.89
-0.895
-0.895
-0.89
-0.88
-0.875
-0.845
-0.83
-0.82
-0.82
-0.805
-0.82
-0.825
-0.82
-0.805
-0.795
-0.77
-0.75
-0.72
-0.7
-0.69
-0.685
-0.67
-0.665
-0.67
-0.65
-0.65
-0.625
-0.62
-0.6
-0.575
-0.55
-0.515
-0.5
-0.51
-0.49
-0.475
-0.47
-0.47
-0.45
-0.425
-0.415
-0.38
-0.36
-0.33
-0.33
-0.325
-0.31
-0.3
-0.31
-0.295
-0.31
-0.3
-0.3
-0.295
-0.295
-0.32
-0.345
-0.39
-0.395
-0.43
-0.445
-0.475
-0.515
-0.54
-0.54
-0.565
-0.57
-0.585
-0.605
-0.635
-0.655
-0.68
-0.7
-0.705
-0.725
-0.715
-0.725
-0.72
-0.73
-0.735
-0.735
-0.745
-0.74
-0.755
-0.77
-0.785
-0.79
-0.75
-0.75
-0.745
-0.73
-0.73
-0.725
-0.715
-0.735
-0.745
-0.76
-0.735
-0.73
-0.72
-0.7
-0.7
-0.71
-0.705
-0.735
-0.72
-0.75
-0.74
-0.71
-0.62
-0.55
-0.415
-0.235
-0.07
0.095
0.285
0.495
0.7
0.94
1.19
1.41
1.62
1.805
1.96
2.08
2.165
2.22
2.235
2.235
2.205
2.125
2.045
1.93
1.85
1.805
1.81
1.825
1.84
1.81
1.705
1.58
1.39
1.215
1.005
0.785
0.515
0.16
-0.18
-0.53
-0.79
-0.93
-0.975
-0.97
-0.945
-0.955
-0.975
-1.03
-1.07
-1.11
-1.155
-1.175
-1.2
-1.225
-1.235
-1.24
-1.275
-1.29
-1.31
-1.325
-1.355
-1.355
-1.375
-1.385
-1.39
-1.39
-1.39
-1.415
-1.42
-1.45
-1.46
-1.475
-1.48
-1.5
-1.485
-1.49
-1.475
-1.465
-1.465
-1.465
-1.47
-1.49
-1.505
-1.525
-1.515
-1.51
-1.485
-1.47
-1.48
-1.485
-1.515
-1.55
-1.595
-1.64
-1.675
-1.7
-1.755
-1.795
-1.865
-1.945
-2.005
-2.07
-2.125
-2.185
-2.225
-2.265
-2.295
-2.305
-2.325
-2.335
-2.34
-2.34
-2.325
-2.315
-2.305
-2.29
-2.3
-2.275
-2.265
-2.235
-2.21
-2.19
-2.135
-2.07
-2.025
-1.98
-1.91
-1.88
-1.825
-1.775
-1.73
-1.68
-1.625
-1.575
-1.535
-1.465
-1.405
-1.355
-1.31
-1.285
-1.265
-1.25
-1.235
-1.22
-1.21
-1.21
-1.2
-1.155
-1.15
-1.135
-1.14
-1.145
-1.135
-1.155
-1.15
-1.165
-1.15
-1.17
-1.175
-1.155
-1.145
-1.14
-1.13
-1.125
-1.13
-1.125
-1.135
-1.135
-1.15
-1.15
-1.135
-1.12
-1.105
-1.1
-1.09
-1.085
-1.085
-1.1
-1.115
-1.125
-1.13
-1.12
-1.115
-1.09
-1.08
-1.07
-1.065
-1.065
-1.075
-1.09
-1.1
-1.085
-1.095
-1.09
-1.085
-1.105
-1.085
-1.08
-1.065
-1.07
-1.065
-1.065
-1.075
-1.105
-1.1
-1.105
-1.095
-1.08
-1.075
-1.06
-1.06
-1.055
-1.06
-1.065
-1.07
-1.065
-1.06
-1.075
-1.06
-1.065
-1.06
-1.045
-1.04
-1.04
-1.045
-1.045
-1.05
-1.07
-1.06
-1.06
-1.07
-1.07
-1.04
-1.04
-1.02
-1.03
-1.02
-1.02
-1.065
-1.07
-1.075
-1.08
-1.075
-1.075
-1.055
-1.04
-1.025
-1.02
-1.02
-1.03
-1.04
-1.03
-1.055
-1.055
-1.055
-1.04
-1.02
-1.015
-0.995
-1.005
-1.02
-1.025
-1.03
-1.02
-1.025
-1.035
-1.025
-1.015
-1.015
-1.01
-1.02
-1.015
-1.01
-1.005
-1.01
-1.01
-1.0
-1.025
-1.015
-1.01
-1.0
-1.0
-0.985
-0.99
-0.995
-1.0
-1.0
-1.005
-1.0
-1.005
-1.0
-0.985
-0.975
-0.97
-0.965
-0.975
-0.985
-0.975
-0.99
-1.005
-0.995
-1.01
-1.0
-0.98
-0.97
-0.97
-0.945
-0.965
-0.96
-0.99
-0.99
-0.995
-0.985
-0.99
-0.985
-0.975
-0.975
-0.975
-0.97
-0.975
-0.96
-0.965
-0.975
-0.975
-0.99
-0.995
-0.99
-0.99
-0.965
-0.96
-0.95
-0.97
-0.96
-0.955
-0.97
-0.97
-0.98
-0.98
-0.975
-0.96
-0.96
-0.935
-0.935
-0.935
-0.94
-0.94
-0.95
-0.96
-0.955
-0.95
-0.96
-0.95
-0.95
-0.93
-0.93
-0.945
-0.97
-0.975
-0.975
-0.97
-0.965
-0.96
-0.955
-0.95
-0.93
-0.925
-0.915
-0.915
-0.93
-0.93
-0.945
-0.945
-0.94
-0.945
-0.96
-0.935
-0.935
-0.925
-0.93
-0.925
-0.925
-0.94
-0.94
-0.94
-0.945
-0.945
-0.945
-0.93
-0.915
-0.93
-0.91
-0.935
-0.935
-0.93
-0.93
-0.945
-0.945
-0.945
-0.925
-0.925
-0.92
-0.93
-0.905
-0.895
-0.895
-0.92
-0.915
-0.93
-0.925
-0.9
-0.89
-0.9
-0.895
-0.87
-0.865
-0.875
-0.885
-0.88
-0.89
-0.885
-0.88
-0.9
-0.895
-0.875
-0.865
-0.835
-0.84
-0.84
-0.815
-0.805
-0.795
-0.795
-0.775
-0.76
-0.745
-0.73
-0.72
-0.705
-0.665
-0.645
-0.62
-0.575
-0.555
-0.52
-0.5
-0.51
-0.51
-0.515
-0.515
-0.51
-0.505
-0.51
-0.535
-0.555
-0.635
-0.69
-0.74
-0.775
-0.825
-0.845
-0.85
-0.855
-0.85
-0.84
-0.85
-0.855
-0.87
-0.88
-0.885
-0.88
-0.9
-0.87
-0.87
-0.865
-0.845
-0.835
-0.835
-0.855
-0.855
-0.87
-0.87
-0.885
-0.895
-0.915
-0.925
-0.93
-0.885
-0.805
-0.65
-0.44
-0.165
0.175
0.525
0.895
1.185
1.37
1.425
1.405
1.225
0.91
0.43
-0.13
-0.61
-0.91
-0.975
-0.895
-0.765
-0.635
-0.595
-0.585
-0.635
-0.705
-0.775
-0.815
-0.865
-0.865
-0.865
-0.875
-0.875
-0.86
-0.87
-0.84
-0.855
-0.87
-0.885
-0.88
-0.9
-0.895
-0.9
-0.9
-0.88
-0.865
-0.87
-0.885
-0.855
-0.86
-0.87
-0.875
-0.885
-0.88
-0.88
-0.89
-0.875
-0.87
-0.865
-0.855
-0.845
-0.845
-0.855
-0.87
-0.875
-0.875
-0.855
-0.865
-0.855
-0.835
-0.84
-0.835
-0.815
-0.82
-0.81
-0.815
-0.805
-0.81
-0.82
-0.825
-0.8
-0.795
-0.785
-0.76
-0.74
-0.725
-0.735
-0.725
-0.71
-0.725
-0.715
-0.7
-0.68
-0.66
-0.65
-0.63
-0.605
-0.575
-0.585
-0.555
-0.55
-0.535
-0.525
-0.515
-0.495
-0.46
-0.445
-0.415
-0.385
-0.38
-0.375
-0.38
-0.375
-0.355
-0.355
-0.315
-0.3
-0.27
-0.265
-0.245
-0.22
-0.235
-0.24
-0.245
-0.26
-0.275
-0.265
-0.29
-0.31
-0.32
-0.325
-0.335
-0.34
-0.365
-0.4
-0.445
-0.465
-0.48
-0.5
-0.51
-0.54
-0.56
-0.565
-0.565
-0.565
-0.59
-0.6
-0.62
-0.635
-0.65
-0.66
-0.67
-0.665
-0.665
-0.67
-0.67
-0.665
-0.665
-0.68
-0.665
-0.68
-0.685
-0.695
-0.69
-0.695
-0.69
-0.675
-0.665
-0.67
-0.67
-0.66
-0.675
-0.68
-0.66
-0.685
-0.685
-0.67
-0.67
-0.66
-0.66
-0.655
-0.66
-0.645
-0.645
-0.645
-0.655
-0.645
-0.65
-0.65
-0.65
-0.66
-0.655
-0.65
-0.66
-0.67
-0.685
-0.675
-0.645
-0.575
-0.485
-0.365
-0.2
-0.04
0.125
0.34
0.54
0.755
0.96
1.17
1.4
1.6
1.78
1.93
2.07
2.165
2.225
2.24
2.23
2.185
2.13
2.045
1.96
1.915
1.88
1.9
1.9
1.905
1.87
1.825
1.705
1.56
1.365
1.16
0.935
0.66
0.33
-0.045
-0.41
-0.69
-0.86
-0.93
-0.91
-0.905
-0.895
-0.91
-0.965
-1.025
-1.085
-1.13
-1.15
-1.155
-1.155
-1.18
-1.175
-1.185
-1.225
-1.23
-1.26
-1.265
-1.28
-1.285
-1.29
-1.28
-1.285
-1.285
-1.28
-1.295
-1.295
-1.295
-1.29
-1.3
-1.315
-1.325
-1.32
-1.305
-1.3
-1.285
-1.255
-1.25
-1.235
-1.245
-1.255
-1.28
-1.325
-1.345
-1.375
-1.38
-1.39
-1.405
-1.44
-1.51
-1.585
-1.66
-1.725
-1.8
-1.855
-1.93
-1.975
-2.0
-2.04
-2.055
-2.08
-2.105
-2.14
-2.175
-2.22
-2.215
-2.245
-2.26
-2.26
-2.28
-2.285
-2.29
-2.3
-2.29
-2.285
-2.28
-2.27
-2.26
-2.235
-2.205
-2.17
-2.135
-2.095
-2.045
-2.015
-1.965
-1.93
-1.88
-1.835
-1.765
-1.715
-1.645
-1.58
-1.525
-1.455
-1.405
-1.36
-1.325
-1.29
-1.26
-1.23
-1.22
-1.2
-1.185
-1.15
-1.135
-1.105
-1.075
-1.085
-1.07
-1.08
-1.09
-1.115
-1.105
-1.13
-1.115
-1.11
-1.095
-1.075
-1.07
-1.07
-1.065
-1.07
-1.085
-1.08
-1.09
-1.09
-1.085
-1.08
-1.065
-1.07
-1.05
-1.045
-1.05
-1.025
-1.055
-1.055
-1.065
-1.075
-1.07
-1.04
-1.025
-1.02
-1.01
-1.0
-1.03
-1.025
-1.04
-1.035
-1.04
-1.035
-1.035
-1.01
-1.01
-1.01
-1.005
-0.995
-0.99
-1.01
-1.03
-1.02
-1.025
-1.025
-1.0
-1.015
-1.0
-1.01
-0.985
-0.995
-0.985
-0.99
-0.99
-0.995
-1.0
-1.01
-0.995
-1.0
-1.0
-1.005
-0.985
-0.98
-0.995
-0.975
-0.99
-1.0
-0.995
-0.99
-0.985
-0.995
-0.99
-0.985
-0.96
-0.97
-0.97
-0.985
-0.995
-0.995
-1.0
-1.0
-0.99
-1.005
-0.97
-0.97
-0.95
-0.94
-0.95
-0.955
-0.965
-0.97
-0.96
-0.975
-0.97
-0.955
-0.965
-0.96
-0.945
-0.95
-0.955
-0.96
-0.965
-0.96
-0.97
-0.97
-0.975
-0.955
-0.95
-0.935
-0.925
-0.925
-0.925
-0.925
-0.95
-0.955
-0.975
-0.965
-0.955
-0.94
-0.95
-0.935
-0.915
-0.925
-0.925
-0.94
-0.955
-0.95
-0.96
-0.955
-0.955
-0.945
-0.955
-0.955
-0.94
-0.92
-0.925
-0.925
-0.935
-0.935
-0.94
-0.94
-0.94
-0.935
-0.935
-0.925
-0.91
-0.91
-0.905
-0.915
-0.92
-0.92
-0.93
-0.95
-0.935
-0.935
-0.93
-0.935
-0.905
-0.9
-0.91
-0.915
-0.935
-0.945
-0.955
-0.94
-0.94
-0.935
-0.92
-0.935
-0.925
-0.9
-0.91
-0.91
-0.94
-0.93
-0.945
-0.95
-0.955
-0.95
-0.945
-0.905
-0.91
-0.915
-0.92
-0.91
-0.92
-0.925
-0.93
-0.94
-0.945
-0.925
-0.915
-0.91
-0.905
-0.9
-0.92
-0.92
-0.935
-0.95
-0.92
-0.925
-0.94
-0.935
-0.92
-0.905
-0.91
-0.895
-0.915
-0.92
-0.935
-0.92
-0.915
-0.92
-0.895
-0.89
-0.9
-0.885
-0.885
-0.865
-0.87
-0.88
-0.885
-0.905
-0.91
-0.925
-0.915
-0.905
-0.905
-0.895
-0.875
-0.87
-0.87
-0.885
-0.88
-0.88
-0.89
-0.89
-0.885
-0.885
-0.87
-0.87
-0.88
-0.865
-0.865
-0.86
-0.85
-0.865
-0.835
-0.825
-0.82
-0.8
-0.775
-0.745
-0.72
-0.72
-0.71
-0.715
-0.685
-0.68
-0.65
-0.61
-0.565
-0.51
-0.49
-0.49
-0.5
-0.51
-0.53
-0.52
-0.53
-0.55
-0.585
-0.625
-0.665
-0.715
-0.75
-0.8
-0.84
-0.85
-0.87
-0.865
-0.88
-0.875
-0.895
-0.885
-0.89
-0.88
-0.88
-0.87
-0.855
-0.865
-0.87
-0.88
-0.905
-0.895
-0.895
-0.9
-0.905
-0.88
-0.895
-0.9
-0.92
-0.925
-0.95
-0.9
-0.825
-0.67
-0.46
-0.195
0.165
0.56
0.91
1.205
1.38
1.45
1.395
1.21
0.89
0.42
-0.145
-0.63
-0.92
-1.015
-0.92
-0.775
-0.65
-0.585
-0.59
-0.675
-0.75
-0.825
-0.865
-0.895
-0.895
-0.865
-0.86
-0.86
-0.86
-0.865
-0.87
-0.89
-0.9
-0.91
-0.925
-0.915
-0.915
-0.93
-0.925
-0.905
-0.915
-0.905
-0.915
-0.91
-0.935
-0.925
-0.955
-0.95
-0.955
-0.95
-0.94
-0.925
-0.925
-0.925
-0.915
-0.92
-0.92
-0.915
-0.915
-0.94
-0.935
-0.93
-0.91
-0.905
-0.905
-0.89
-0.89
-0.885
-0.895
-0.91
-0.91
-0.9
-0.905
-0.89
-0.885
-0.86
-0.85
-0.84
-0.83
-0.835
-0.83
-0.84
-0.835
-0.825
-0.83
-0.805
-0.785
-0.765
-0.75
-0.74
-0.73
-0.735
-0.735
-0.725
-0.715
-0.71
-0.69
-0.675
-0.65
-0.625
-0.595
-0.58
-0.58
-0.57
-0.55
-0.55
-0.535
-0.525
-0.51
-0.49
-0.465
-0.455
-0.425
-0.405
-0.395
-0.38
-0.39
-0.375
-0.37
-0.34
-0.34
-0.33
-0.305
-0.3
-0.27
-0.265
-0.26
-0.295
-0.285
-0.315
-0.345
-0.37
-0.39
-0.405
-0.435
-0.44
-0.47
-0.47
-0.495
-0.515
-0.555
-0.59
-0.605
-0.63
-0.64
-0.635
-0.635
-0.65
-0.655
-0.665
-0.67
-0.68
-0.705
-0.71
-0.71
-0.71
-0.72
-0.715
-0.72
-0.71
-0.7
-0.695
-0.695
-0.705
-0.705
-0.715
-0.72
-0.715
-0.705
-0.7
-0.69
-0.685
-0.68
-0.675
-0.685
-0.69
-0.685
-0.68
-0.685
-0.685
-0.68
-0.665
-0.68
-0.67
-0.65
-0.64
-0.645
-0.645
-0.66
-0.66
-0.665
-0.68
-0.68
-0.69
-0.69
-0.68
-0.675
-0.68
-0.675
-0.665
-0.65
-0.595
-0.525
-0.41
-0.265
-0.13
0.03
0.195
0.39
0.59
0.8
1.025
1.24
1.43
1.63
1.78
1.925
2.055
2.14
2.21
2.225
2.24
2.235
2.205
2.145
2.065
2.005
1.96
1.935
1.94
1.97
1.98
1.985
1.92
1.805
1.66
1.475
1.28
1.035
0.74
0.38
-0.015
-0.4
-0.67
-0.865
-0.91
-0.93
-0.935
-0.925
-0.94
-0.985
-1.025
-1.085
-1.12
-1.14
-1.145
-1.155
-1.16
-1.18
-1.2
-1.215
-1.225
-1.245
-1.27
-1.28
-1.29
-1.295
-1.315
-1.3
-1.3
-1.305
-1.31
-1.315
-1.32
-1.325
-1.34
-1.325
-1.34
-1.335
-1.33
-1.315
-1.29
-1.285
-1.275
-1.28
-1.29
-1.325
-1.335
-1.375
-1.39
-1.415
-1.42
-1.435
-1.46
-1.505
-1.575
-1.665
-1.75
-1.845
-1.915
-1.995
-2.055
-2.075
-2.105
-2.105
-2.13
-2.16
-2.19
-2.21
-2.26
-2.29
-2.295
-2.305
-2.32
-2.325
-2.32
-2.325
-2.305
-2.3
-2.295
-2.28
-2.285
-2.275
-2.245
-2.24
-2.205
-2.16
-2.125
-2.06
-2.015
-1.98
-1.925
-1.88
-1.83
-1.795
-1.725
-1.685
-1.625
-1.565
-1.5
-1.43
-1.38
-1.33
-1.28
-1.26
-1.225
-1.205
-1.185
-1.15
-1.13
-1.105
-1.085
-1.06
-1.04
-1.055
-1.045
-1.05
-1.065
-1.08
-1.075
-1.075
-1.075
-1.065
-1.07
-1.055
-1.04
-1.06
-1.04
-1.04
-1.055
-1.055
-1.05
-1.045
-1.05
-1.055
-1.035
-1.03
-1.03
-1.005
-1.02
-1.02
-1.055
-1.045
-1.04
-1.045
-1.045
-1.025
-1.02
-1.015
-1.005
-0.995
-0.985
-0.995
-0.995
-1.005
-1.01
-1.01
-0.995
-0.99
-0.98
-0.985
-0.97
-0.98
-0.96
-0.985
-0.99
-1.0
-0.995
-0.985
-0.995
-0.975
-0.965
-0.955
-0.94
-0.95
-0.955
-0.96
-0.965
-0.97
-0.995
-0.985
-0.975
-0.965
-0.965
-0.95
-0.92
-0.925
-0.935
-0.94
-0.955
-0.95
-0.95
-0.945
-0.95
-0.94
-0.935
-0.935
-0.895
-0.915
-0.91
-0.915
-0.935
-0.96
-0.94
-0.945
-0.95
-0.94
-0.92
-0.91
-0.88
-0.89
-0.92
-0.93
-0.915
-0.93
-0.925
-0.905
-0.92
-0.905
-0.89
-0.885
-0.895
-0.92
-0.92
-0.92
-0.925
-0.935
-0.915
-0.925
-0.92
-0.905
-0.9
-0.88
-0.865
-0.875
-0.885
-0.895
-0.9
-0.9
-0.895
-0.88
-0.89
-0.885
-0.87
-0.875
-0.87
-0.86
-0.875
-0.875
-0.885
-0.895
-0.9
-0.905
-0.895
-0.88
-0.865
-0.855
-0.86
-0.85
-0.88
-0.88
-0.89
-0.89
-0.885
-0.905
-0.895
-0.885
-0.885
-0.85
-0.85
-0.87
-0.87
-0.875
-0.89
-0.895
-0.92
-0.91
-0.905
-0.865
-0.855
-0.865
-0.84
-0.86
-0.865
-0.86
-0.88
-0.9
-0.905
-0.885
-0.885
-0.885
-0.875
-0.87
-0.87
-0.87
-0.875
-0.875
-0.88
-0.86
-0.885
-0.89
-0.89
-0.88
-0.875
-0.87
-0.86
-0.865
-0.87
-0.87
-0.865
-0.87
-0.865
-0.86
-0.87
-0.86
-0.86
-0.865
-0.86
-0.865
-0.845
-0.845
-0.855
-0.86
-0.865
-0.87
-0.885
-0.87
-0.865
-0.85
-0.85
-0.835
-0.84
-0.85
-0.865
-0.855
-0.87
-0.87
-0.855
-0.845
-0.82
-0.84
-0.82
-0.85
-0.85
-0.865
-0.865
-0.865
-0.87
-0.875
-0.88
-0.865
-0.865
-0.85
-0.83
-0.83
-0.845
-0.835
-0.85
-0.855
-0.84
-0.855
-0.845
-0.84
-0.82
-0.825
-0.835
-0.835
-0.84
-0.825
-0.83
-0.85
-0.855
-0.84
-0.83
-0.79
-0.745
-0.7
-0.68
-0.675
-0.665
-0.665
-0.65
-0.635
-0.615
-0.58
-0.54
-0.495
-0.475
-0.465
-0.46
-0.47
-0.495
-0.49
-0.5
-0.5
-0.495
-0.525
-0.56
-0.615
-0.65
-0.68
-0.74
-0.785
-0.82
-0.85
-0.86
-0.86
-0.855
-0.86
-0.87
-0.87
-0.87
-0.85
-0.85
-0.85
-0.84
-0.865
-0.885
-0.885
-0.89
-0.885
-0.885
-0.87
-0.85
-0.865
-0.875
-0.9
-0.915
-0.925
-0.9
-0.79
-0.63
-0.41
-0.105
0.26
0.665
1.005
1.27
1.41
1.44
1.34
1.105
0.75
0.235
-0.295
-0.74
-0.96
-0.985
-0.88
-0.73
-0.62
-0.58
-0.61
-0.695
-0.76
-0.83
-0.865
-0.88
-0.88
-0.875
-0.865
-0.85
-0.855
-0.855
-0.875
-0.89
-0.885
-0.895
-0.905
-0.915
-0.91
-0.905
-0.895
-0.885
-0.9
-0.915
-0.915
-0.925
-0.92
-0.935
-0.925
-0.905
-0.905
-0.885
-0.885
-0.87
-0.9
-0.88
-0.895
-0.91
-0.9
-0.89
-0.91
-0.9
-0.88
-0.88
-0.87
-0.86
-0.845
-0.86
-0.86
-0.875
-0.885
-0.87
-0.88
-0.86
-0.85
-0.83
-0.825
-0.81
-0.8
-0.8
-0.8
-0.805
-0.82
-0.8
-0.79
-0.775
-0.77
-0.76
-0.74
-0.72
-0.705
-0.685
-0.68
-0.68
-0.68
-0.665
-0.66
-0.63
-0.61
-0.58
-0.56
-0.55
-0.535
-0.515
-0.515
-0.535
-0.505
-0.51
-0.5
-0.485
-0.475
-0.43
-0.405
-0.395
-0.385
-0.37
-0.36
-0.385
-0.36
-0.365
-0.35
-0.335
-0.315
-0.305
-0.285
-0.27
-0.265
-0.27
-0.29
-0.3
-0.33
-0.345
-0.365
-0.39
-0.415
-0.4
-0.415
-0.425
-0.43
-0.465
-0.5
-0.535
-0.565
-0.59
-0.595
-0.62
-0.61
-0.61
-0.635
-0.63
-0.625
-0.65
-0.67
-0.695
-0.69
-0.695
-0.7
-0.695
-0.69
-0.68
-0.695
-0.675
-0.68
-0.68
-0.68
-0.69
-0.69
-0.695
-0.7
-0.695
-0.665
-0.655
-0.635
-0.635
-0.63
-0.64
-0.63
-0.645
-0.65
-0.67
-0.68
-0.665
-0.665
-0.655
-0.66
-0.615
-0.595
-0.54
-0.48
-0.39
-0.26
-0.115
0.045
0.22
0.41
0.64
0.87
1.09
1.32
1.555
1.77
1.95
2.085
2.215
2.305
2.36
2.4
2.39
2.385
2.335
2.255
2.14
2.045
1.99
1.935
1.945
1.975
2.0
1.985
1.95
1.87
1.74
1.57
1.395
1.17
0.92
0.61
0.24
-0.155
-0.495
-0.76
-0.885
-0.92
-0.89
-0.875
-0.865
-0.89
-0.93
-1.005
-1.055
-1.115
-1.145
-1.16
-1.155
-1.155
-1.165
-1.18
-1.19
-1.22
-1.24
-1.25
-1.27
-1.29
-1.305
-1.31
-1.32
-1.315
-1.31
-1.32
-1.335
-1.35
-1.37
-1.39
-1.395
-1.41
-1.425
-1.425
-1.445
-1.45
-1.465
-1.475
-1.5
-1.505
-1.535
-1.55
-1.585
-1.595
-1.605
-1.61
-1.61
-1.61
-1.61
-1.625
-1.61
-1.62
-1.64
-1.66
-1.69
-1.7
-1.705
-1.665
-1.65
-1.65
-1.655
-1.68
-1.725
-1.77
-1.825
-1.85
-1.89
-1.91
-1.935
-1.975
-2.005
-2.065
-2.09
-2.125
-2.175
-2.2
-2.25
-2.25
-2.26
-2.24
-2.21
-2.19
-2.16
-2.135
-2.08
-2.06
-2.01
-1.98
-1.94
-1.9
-1.855
-1.82
-1.755
-1.695
-1.645
-1.585
-1.505
-1.445
-1.39
-1.35
-1.32
-1.265
-1.24
-1.205
-1.165
-1.135
-1.105
-1.065
-1.04
-1.025
-1.015
-1.005
-1.015
-1.005
-1.01
-1.02
-1.015
-1.02
-1.005
-0.985
-0.985
-0.97
-0.98
-0.97
-0.995
-0.985
-0.99
-1.0
-0.98
-0.98
-0.96
-0.97
-0.955
-0.955
-0.955
-0.955
-0.96
-0.965
-0.95
-0.96
-0.96
-0.955
-0.95
-0.94
-0.94
-0.94
-0.925
-0.95
-0.945
-0.95
-0.97
-0.97
-0.975
-0.955
-0.95
-0.95
-0.935
-0.915
-0.92
-0.915
-0.935
-0.945
-0.95
-0.945
-0.94
-0.93
-0.94
-0.935
-0.91
-0.91
-0.91
-0.91
-0.935
-0.94
-0.94
-0.95
-0.945
-0.925
-0.905
-0.9
-0.91
-0.895
-0.91
-0.905
-0.915
-0.935
-0.925
-0.93
-0.935
-0.925
-0.93
-0.925
-0.905
-0.895
-0.895
-0.895
-0.905
-0.915
-0.905
-0.92
-0.91
-0.91
-0.9
-0.895
-0.89
-0.88
-0.885
-0.89
-0.895
-0.905
-0.91
-0.905
-0.905
-0.9
-0.895
-0.895
-0.885
-0.87
-0.89
-0.88
-0.88
-0.89
-0.9
-0.89
-0.885
-0.875
-0.855
-0.85
-0.85
-0.855
-0.85
-0.86
-0.87
-0.865
-0.875
-0.86
-0.875
-0.87
-0.845
-0.845
-0.835
-0.825
-0.845
-0.86
-0.84
-0.875
-0.88
-0.86
-0.855
-0.85
-0.83
-0.835
-0.82
-0.815
-0.815
-0.815
-0.82
-0.84
-0.84
-0.83
-0.85
-0.83
-0.83
-0.815
-0.82
-0.815
-0.815
-0.82
-0.82
-0.855
-0.85
-0.85
-0.83
-0.83
-0.825
-0.82
-0.815
-0.805
-0.81
-0.82
-0.82
-0.83
-0.84
-0.835
-0.845
-0.84
-0.815
-0.82
-0.805
-0.81
-0.83
-0.81
-0.83
-0.84
-0.835
-0.82
-0.82
-0.83
-0.805
-0.79
-0.79
-0.8
-0.79
-0.79
-0.81
-0.825
-0.815
-0.835
-0.82
-0.815
-0.8
-0.795
-0.78
-0.78
-0.785
-0.78
-0.815
-0.815
-0.81
-0.815
-0.805
-0.8
-0.78
-0.775
-0.79
-0.78
-0.775
-0.795
-0.8
-0.82
-0.82
-0.815
-0.815
-0.815
-0.8
-0.79
-0.775
-0.765
-0.76
-0.755
-0.775
-0.775
-0.79
-0.795
-0.79
-0.81
-0.8
-0.775
-0.765
-0.77
-0.765
-0.775
-0.79
-0.8
-0.805
-0.78
-0.785
-0.78
-0.785
-0.765
-0.76
-0.75
-0.76
-0.76
-0.77
-0.765
-0.775
-0.775
-0.765
-0.79
-0.78
-0.745
-0.74
-0.74
-0.745
-0.75
-0.75
-0.755
-0.77
-0.78
-0.78
-0.76
-0.745
-0.72
-0.705
-0.695
-0.67
-0.665
-0.66
-0.655
-0.64
-0.655
-0.635
-0.62
-0.59
-0.565
-0.54
-0.485
-0.455
-0.43
-0.405
-0.385
-0.395
-0.4
-0.415
-0.405
-0.395
-0.395
-0.395
-0.39
-0.46
-0.5
-0.555
-0.635
-0.68
-0.735
-0.765
-0.78
-0.775
-0.775
-0.745
-0.74
-0.74
-0.755
-0.77
-0.77
-0.795
-0.805
-0.79
-0.78
-0.775
-0.755
-0.76
-0.745
-0.76
-0.755
-0.775
-0.785
-0.82
-0.865
-0.865
-0.855
-0.785
-0.655
-0.46
-0.185
0.155
0.545
0.915
1.23
1.425
1.495
1.46
1.275
0.985
0.53
0.0
-0.47
-0.765
-0.865
-0.835
-0.7
-0.58
-0.515
-0.53
-0.575
-0.635
-0.685
-0.72
-0.74
-0.75
-0.77
-0.78
-0.775
-0.785
-0.795
-0.815
-0.815
-0.82
-0.81
-0.8
-0.8
-0.8
-0.8
-0.805
-0.82
-0.82
-0.825
-0.835
-0.815
-0.81
-0.805
-0.805
-0.79
-0.785
-0.8
-0.825
-0.83
-0.845
-0.845
-0.82
-0.825
-0.805
-0.795
-0.79
-0.765
-0.78
-0.785
-0.795
-0.805
-0.81
-0.83
-0.82
-0.8
-0.795
-0.77
-0.765
-0.75
-0.775
-0.77
-0.775
-0.77
-0.775
-0.76
-0.76
-0.74
-0.73
-0.69
-0.68
-0.685
-0.685
-0.685
-0.665
-0.665
-0.655
-0.645
-0.625
-0.61
-0.585
-0.575
-0.545
-0.535
-0.525
-0.515
-0.51
-0.5
-0.495
-0.485
-0.465
-0.445
-0.415
-0.405
-0.4
-0.375
-0.365
-0.34
-0.34
-0.35
-0.33
-0.325
-0.315
-0.29
-0.285
-0.25
-0.25
-0.235
-0.235
-0.23
-0.225
-0.24
-0.25
-0.265
-0.28
-0.29
-0.3
-0.31
-0.345
-0.33
-0.34
-0.385
-0.43
-0.48
-0.475
-0.515
-0.535
-0.54
-0.56
-0.555
-0.57
-0.58
-0.58
-0.59
-0.625
-0.625
-0.66
-0.66
-0.655
-0.66
-0.645
-0.645
-0.635
-0.64
-0.65
-0.66
-0.67
-0.67
-0.66
-0.675
-0.67
-0.665
-0.65
-0.645
-0.63
-0.635
-0.65
-0.655
-0.66
-0.66
-0.65
-0.66
-0.64
-0.66
-0.645
-0.63
-0.635
-0.61
-0.625
-0.615
-0.62
-0.625
-0.66
-0.66
-0.66
-0.665
-0.66
-0.66
-0.65
-0.665
-0.635
-0.645
-0.665
-0.675
-0.67
-0.71
-0.695
-0.695
-0.67
-0.655
-0.67
-0.675
-0.675
-0.685
-0.7
-0.72
-0.725
-0.74
-0.74
-0.745
-0.725
-0.715
-0.705
-0.695
-0.71
-0.715
-0.73
-0.735
-0.75
-0.76
-0.745
-0.755
-0.76
-0.755
-0.75
-0.755
-0.755
-0.765
-0.76
-0.765
-0.77
-0.79
-0.785
-0.78
-0.77
-0.775
-0.765
-0.76
-0.75
-0.75
-0.765
-0.755
-0.775
-0.775
-0.775
-0.765
-0.775
-0.745
-0.73
-0.72
-0.71
-0.69
-0.69
-0.68
-0.675
-0.66
-0.65
-0.63
-0.62
-0.585
-0.545
-0.525
-0.49
-0.45
-0.44
-0.42
-0.445
-0.455
-0.46
-0.46
-0.445
-0.46
-0.46
-0.475
-0.53
-0.585
-0.645
-0.71
-0.765
-0.82
-0.835
-0.835
-0.82
-0.8
-0.795
-0.79
-0.8
-0.795
-0.83
-0.83
-0.84
-0.85
-0.86
-0.85
-0.84
-0.83
-0.825
-0.83
-0.83
-0.825
-0.84
-0.85
-0.85
-0.845
-0.86
-0.86
-0.855
-0.88
-0.905
-0.905
-0.9
-0.835
-0.735
-0.555
-0.335
-0.045
0.285
0.64
0.965
1.23
1.385
1.46
1.42
1.275
1.025
0.61
0.08
-0.435
-0.83
-1.02
-0.975
-0.84
-0.695
-0.595
-0.555
-0.6
-0.665
-0.745
-0.805
-0.835
-0.87
-0.855
-0.835
-0.82
-0.815
-0.815
-0.825
-0.835
-0.855
-0.885
-0.875
-0.87
-0.88
-0.875
-0.865
-0.845
-0.83
-0.835
-0.84
-0.845
-0.855
-0.865
-0.885
-0.88
-0.875
-0.865
-0.86
-0.84
-0.825
-0.82
-0.835
-0.845
-0.845
-0.85
-0.85
-0.855
-0.86
-0.85
-0.835
-0.825
-0.805
-0.805
-0.8
-0.815
-0.805
-0.82
-0.825
-0.83
-0.845
-0.83
-0.805
-0.8
-0.775
-0.75
-0.74
-0.76
-0.75
-0.755
-0.755
-0.75
-0.735
-0.71
-0.705
-0.685
-0.665
-0.65
-0.65
-0.63
-0.635
-0.63
-0.61
-0.59
-0.595
-0.565
-0.545
-0.515
-0.5
-0.485
-0.48
-0.445
-0.44
-0.445
-0.43
-0.41
-0.4
-0.385
-0.375
-0.355
-0.33
-0.315
-0.315
-0.305
-0.305
-0.31
-0.3
-0.3
-0.305
-0.3
-0.29
-0.28
-0.29
-0.3
-0.32
-0.355
-0.4
-0.415
-0.455
-0.48
-0.505
-0.535
-0.555
-0.55
-0.585
-0.595
-0.625
-0.66
-0.685
-0.72
-0.74
-0.75
-0.755
-0.78
-0.78
-0.785
-0.78
-0.775
-0.79
-0.805
-0.815
-0.84
-0.835
-0.86
-0.88
-0.87
-0.84
-0.85
-0.82
-0.825
-0.83
-0.83
-0.83
-0.83
-0.85
-0.84
-0.84
-0.83
-0.815
-0.805
-0.805
-0.785
-0.77
-0.795
-0.79
-0.805
-0.8
-0.81
-0.82
-0.795
-0.785
-0.775
-0.76
-0.745
-0.755
-0.76
-0.79
-0.78
-0.785
-0.79
-0.79
-0.805
-0.78
-0.785
-0.755
-0.76
-0.77
-0.775
-0.78
-0.8
-0.795
-0.82
-0.82
-0.825
-0.8
-0.785
-0.78
-0.775
-0.78
-0.785
-0.795
-0.805
-0.83
-0.825
-0.845
-0.845
-0.83
-0.83
-0.815
-0.805
-0.81
-0.815
-0.83
-0.83
-0.83
-0.835
-0.85
-0.835
-0.84
-0.84
-0.83
-0.82
-0.825
-0.85
-0.865
-0.85
-0.865
-0.865
-0.875
-0.875
-0.86
-0.84
-0.825
-0.82
-0.83
-0.84
-0.845
-0.855
-0.835
-0.85
-0.855
-0.85
-0.845
-0.845
-0.82
-0.795
-0.785
-0.775
-0.765
-0.78
-0.75
-0.735
-0.73
-0.705
-0.68
-0.66
-0.635
-0.62
-0.575
-0.535
-0.495
-0.485
-0.49
-0.515
-0.53
-0.54
-0.535
-0.505
-0.52
-0.52
-0.55
-0.6
-0.655
-0.72
-0.77
-0.825
-0.86
-0.88
-0.89
-0.855
-0.875
-0.855
-0.865
-0.865
-0.89
-0.885
-0.88
-0.91
-0.915
-0.91
-0.905
-0.885
-0.89
-0.88
-0.89
-0.905
-0.905
-0.94
-0.925
-0.91
-0.915
-0.9
-0.89
-0.895
-0.9
-0.93
-0.94
-0.925
-0.86
-0.73
-0.515
-0.22
0.16
0.575
0.95
1.235
1.385
1.415
1.275
0.99
0.52
-0.045
-0.575
-0.94
-1.085
-1.025
-0.865
-0.73
-0.65
-0.63
-0.675
-0.745
-0.815
-0.87
-0.915
-0.91
-0.92
-0.905
-0.9
-0.89
-0.89
-0.89
-0.89
-0.91
-0.905
-0.93
-0.93
-0.935
-0.95
-0.945
-0.93
-0.915
-0.915
-0.895
-0.915
-0.925
-0.92
-0.925
-0.95
-0.94
-0.955
-0.955
-0.94
-0.91
-0.92
-0.905
-0.89
-0.9
-0.91
-0.915
-0.92
-0.915
-0.91
-0.905
-0.905
-0.905
-0.91
-0.895
-0.89
-0.875
-0.865
-0.88
-0.87
-0.88
-0.865
-0.855
-0.845
-0.84
-0.82
-0.795
-0.78
-0.795
-0.805
-0.805
-0.765
-0.755
-0.745
-0.725
-0.7
-0.665
-0.665
-0.63
-0.595
-0.585
-0.57
-0.59
-0.575
-0.55
-0.53
-0.5
-0.48
-0.455
-0.42
-0.395
-0.38
-0.385
-0.37
-0.36
-0.355
-0.335
-0.35
-0.325
-0.295
-0.285
-0.275
-0.26
-0.26
-0.26
-0.28
-0.305
-0.34
-0.345
-0.375
-0.415
-0.43
-0.425
-0.455
-0.475
-0.51
-0.55
-0.58
-0.64
-0.675
-0.68
-0.715
-0.74
-0.755
-0.75
-0.785
-0.78
-0.78
-0.79
-0.8
-0.825
-0.825
-0.845
-0.845
-0.875
-0.865
-0.855
-0.84
-0.855
-0.855
-0.865
-0.865
-0.875
-0.875
-0.9
-0.885
-0.875
-0.865
-0.86
-0.85
-0.84
-0.84
-0.84
-0.855
-0.855
-0.85
-0.865
-0.85
-0.85
-0.855
-0.825
-0.82
-0.8
-0.795
-0.795
-0.795
-0.805
-0.825
-0.825
-0.83
-0.84
-0.815
-0.805
-0.805
-0.805
-0.79
-0.805
-0.81
-0.82
-0.825
-0.825
-0.82
-0.825
-0.83
-0.835
-0.83
-0.81
-0.83
-0.83
-0.845
-0.845
-0.86
-0.865
-0.88
-0.875
-0.88
-0.88
-0.86
-0.875
-0.865
-0.86
-0.875
-0.87
-0.895
-0.91
-0.92
-0.93
-0.915
-0.89
-0.89
-0.87
-0.865
-0.88
-0.895
-0.905
-0.91
-0.915
-0.915
-0.93
-0.93
-0.9
-0.895
-0.885
-0.89
-0.885
-0.89
-0.9
-0.915
-0.92
-0.93
-0.925
-0.925
-0.89
-0.885
-0.865
-0.865
-0.85
-0.86
-0.845
-0.83
-0.815
-0.825
-0.8
-0.78
-0.77
-0.755
-0.73
-0.725
-0.705
-0.675
-0.67
-0.62
-0.615
-0.585
-0.56
-0.56
-0.575
-0.58
-0.575
-0.58
-0.595
-0.61
-0.645
-0.695
-0.73
-0.795
-0.835
-0.88
-0.9
-0.915
-0.945
-0.94
-0.94
-0.95
-0.96
-0.97
-0.97
-0.99
-0.99
-0.985
-0.975
-0.975
-0.965
-0.96
-0.965
-0.98
-0.995
-0.99
-1.0
-0.995
-0.985
-0.985
-0.96
-0.97
-0.95
-0.975
-1.01
-1.025
-1.035
-1.04
-0.96
-0.83
-0.65
-0.365
-0.02
0.36
0.745
1.045
1.235
1.305
1.25
1.05
0.72
0.26
-0.315
-0.79
-1.085
-1.16
-1.055
-0.905
-0.765
-0.71
-0.725
-0.785
-0.87
-0.935
-0.975
-0.985
-0.98
-0.975
-0.96
-0.975
-0.98
-0.975
-0.99
-0.99
-1.015
-1.03
-1.02
-1.015
-1.01
-0.995
-0.99
-0.995
-0.995
-1.0
-1.01
-1.015
-1.02
-1.03
-1.03
-1.01
-0.995
-1.0
-0.995
-0.99
-0.995
-0.995
-1.005
-1.01
-1.015
-1.03
-1.005
-1.0
-0.99
-0.975
-0.965
-0.97
-0.97
-0.97
-0.98
-0.985
-0.975
-0.97
-0.955
-0.95
-0.94
-0.925
-0.905
-0.9
-0.9
-0.9
-0.905
-0.895
-0.905
-0.895
-0.865
-0.84
-0.815
-0.795
-0.79
-0.765
-0.745
-0.745
-0.725
-0.73
-0.72
-0.705
-0.68
-0.66
-0.625
-0.6
-0.56
-0.55
-0.53
-0.515
-0.525
-0.51
-0.51
-0.485
-0.47
-0.435
-0.415
-0.395
-0.38
-0.37
-0.375
-0.355
-0.385
-0.395
-0.43
-0.45
-0.45
-0.45
-0.46
-0.48
-0.5
-0.545
-0.58
-0.62
-0.66
-0.69
-0.725
-0.75
-0.79
-0.785
-0.825
-0.835
-0.835
-0.835
-0.85
-0.87
-0.89
-0.895
-0.925
-0.96
-0.95
-0.93
-0.94
-0.93
-0.925
-0.935
-0.945
-0.945
-0.97
-0.985
-0.975
-0.97
-0.985
-0.97
-0.96
-0.945
-0.94
-0.94
-0.95
-0.95
-0.95
-0.945
-0.955
-0.95
-0.935
-0.935
-0.925
-0.91
-0.915
-0.915
-0.925
-0.905
-0.92
-0.935
-0.925
-0.925
-0.925
-0.92
-0.905
-0.895
-0.895
-0.885
-0.895
-0.91
-0.925
-0.935
-0.925
-0.93
-0.935
-0.935
-0.905
-0.915
-0.91
-0.895
-0.895
-0.92
-0.93
-0.95
-0.96
-0.96
-0.965
-0.975
-0.955
-0.94
-0.935
-0.935
-0.94
-0.945
-0.95
-0.95
-0.955
-0.975
-0.97
-0.97
-0.96
-0.96
-0.945
-0.945
-0.955
-0.97
-0.965
-0.97
-0.98
-0.975
-0.98
-0.985
-0.975
-0.96
-0.95
-0.945
-0.94
-0.955
-0.955
-0.955
-0.945
-0.935
-0.93
-0.895
-0.875
-0.86
-0.81
-0.795
-0.795
-0.79
-0.76
-0.74
-0.72
-0.695
-0.66
-0.635
-0.615
-0.62
-0.625
-0.62
-0.65
-0.645
-0.69
-0.705
-0.74
-0.81
-0.855
-0.895
-0.93
-0.985
-0.99
-0.995
-0.995
-1.005
-1.015
-1.025
-1.03
-1.03
-1.045
-1.055
-1.04
-1.02
-1.025
-1.025
-1.035
-1.025
-1.045
-1.05
-1.06
-1.06
-1.07
-1.045
-1.03
-1.015
-0.995
-1.005
-1.005
-1.035
-1.065
-1.085
-1.095
-1.075
-1.0
-0.855
-0.655
-0.405
-0.08
0.235
0.615
0.92
1.125
1.22
1.23
1.17
1.005
0.745
0.39
-0.08
-0.535
-0.915
-1.115
-1.145
-1.06
-0.94
-0.825
-0.77
-0.765
-0.83
-0.87
-0.94
-0.96
-0.995
-1.015
-0.995
-1.005
-1.015
-1.015
-1.035
-1.05
-1.045
-1.025
-1.02
-1.01
-1.02
-1.02
-1.03
-1.055
-1.065
-1.065
-1.07
-1.085
-1.065
-1.05
-1.045
-1.03
-1.015
-1.025
-1.03
-1.035
-1.05
-1.05
-1.045
-1.05
-1.07
-1.045
-1.03
-1.025
-1.01
-1.01
-1.01
-1.015
-1.025
-1.02
-1.01
-1.0
-0.995
-0.985
-0.985
-0.98
-0.955
-0.96
-0.975
-0.97
-0.98
-0.965
-0.94
-0.945
-0.935
-0.91
-0.905
-0.89
-0.875
-0.855
-0.87
-0.85
-0.865
-0.855
-0.845
-0.81
-0.8
-0.78
-0.77
-0.735
-0.705
-0.695
-0.675
-0.675
-0.655
-0.64
-0.62
-0.595
-0.575
-0.555
-0.545
-0.515
-0.5
-0.49
-0.475
-0.475
-0.465
-0.465
-0.47
-0.43
-0.41
-0.385
-0.39
-0.39
-0.37
-0.385
-0.4
-0.42
-0.44
-0.475
-0.495
-0.555
-0.545
-0.565
-0.585
-0.615
-0.635
-0.675
-0.7
-0.75
-0.765
-0.795
-0.835
-0.86
-0.89
-0.885
-0.895
-0.895
-0.895
-0.915
-0.92
-0.94
-0.955
-0.99
-0.985
-0.98
-0.97
-0.97
-0.965
-0.98
-0.975
-0.97
-0.975
-0.98
-1.0
-1.0
-1.005
-0.995
-0.99
-0.97
-0.955
-0.945
-0.945
-0.935
-0.935
-0.93
-0.93
-0.935
-0.945
-0.94
-0.93
-0.925
-0.915
-0.905
-0.89
-0.87
-0.855
-0.79
-0.695
-0.565
-0.41
-0.23
-0.025
0.2
0.42
0.655
0.91
1.185
1.415
1.625
1.795
1.955
2.045
2.105
2.13
2.14
2.115
2.075
2.01
1.915
1.815
1.75
1.705
1.71
1.725
1.745
1.74
1.69
1.605
1.48
1.325
1.13
0.91
0.63
0.26
-0.14
-0.535
-0.85
-1.05
-1.14
-1.155
-1.105
-1.09
-1.105
-1.15
-1.21
-1.27
-1.33
-1.365
-1.385
-1.395
-1.405
-1.415
-1.44
-1.45
-1.45
-1.47
-1.495
-1.515
-1.515
-1.545
-1.54
-1.55
-1.555
-1.565
-1.57
-1.565
-1.595
-1.625
-1.645
-1.66
-1.66
-1.675
-1.675
-1.655
-1.67
-1.665
-1.64
-1.65
-1.65
-1.66
-1.69
-1.705
-1.715
-1.69
-1.675
-1.665
-1.665
-1.675
-1.7
-1.74
-1.79
-1.825
-1.875
-1.925
-1.975
-2.02
-2.095
-2.155
-2.22
-2.275
-2.355
-2.375
-2.415
-2.445
-2.46
-2.47
-2.485
-2.49
-2.49
-2.475
-2.47
-2.44
-2.425
-2.4
-2.385
-2.36
-2.335
-2.3
-2.275
-2.23
-2.18
-2.125
-2.065
-2.005
-1.94
-1.89
-1.84
-1.79
-1.74
-1.685
-1.645
-1.6
-1.55
-1.49
-1.445
-1.39
-1.355
-1.32
-1.3
-1.285
-1.3
-1.28
-1.275
-1.275
-1.26
-1.26
-1.245
-1.225
-1.215
-1.205
-1.215
-1.22
-1.22
-1.235
-1.235
-1.225
-1.23
-1.23
-1.225
-1.21
-1.195
-1.185
-1.185
-1.205
-1.21
-1.215
-1.21
-1.215
-1.21
-1.205
-1.195
-1.18
-1.175
-1.18
-1.175
-1.17
-1.18
-1.185
-1.19
-1.2
-1.185
-1.18
-1.17
-1.165
-1.155
-1.13
-1.17
-1.16
-1.145
-1.16
-1.175
-1.17
-1.17
-1.165
-1.16
-1.16
-1.14
-1.13
-1.14
-1.135
-1.15
-1.155
-1.155
-1.16
-1.155
-1.145
-1.13
-1.13
-1.13
-1.115
-1.12
-1.115
-1.12
-1.135
-1.14
-1.135
-1.15
-1.12
-1.135
-1.115
-1.105
-1.09
-1.105
-1.105
-1.115
-1.13
-1.125
-1.12
-1.12
-1.12
-1.105
-1.09
-1.09
-1.075
-1.075
-1.085
-1.095
-1.095
-1.095
-1.1
-1.105
-1.09
-1.09
-1.1
-1.075
-1.07
-1.07
-1.08
-1.085
-1.085
-1.095
-1.095
-1.085
-1.08
-1.07
-1.065
-1.065
-1.05
-1.06
-1.06
-1.07
-1.08
-1.075
-1.095
-1.08
-1.065
-1.06
-1.045
-1.065
-1.05
-1.045
-1.045
-1.065
-1.075
-1.065
-1.08
-1.08
-1.075
-1.055
-1.04
-1.03
-1.05
-1.045
-1.04
-1.035
-1.045
-1.055
-1.045
-1.06
-1.04
-1.04
-1.04
-1.03
-1.04
-1.04
-1.03
-1.04
-1.05
-1.05
-1.065
-1.075
-1.075
-1.06
-1.045
-1.025
-0.99
-1.02
-1.03
-1.04
-1.03
-1.035
-1.045
-1.055
-1.045
-1.025
-0.995
-0.98
-0.995
-1.01
-1.0
-1.015
-1.01
-1.025
-1.05
-1.02
-1.02
-1.02
-1.005
-1.01
-1.01
-1.005
-1.0
-1.005
-1.02
-1.03
-1.045
-1.02
-1.025
-1.025
-1.015
-0.99
-0.995
-0.995
-0.995
-1.005
-1.015
-1.015
-1.0
-1.005
-1.0
-0.99
-0.985
-0.97
-0.97
-0.985
-0.98
-0.985
-0.99
-0.99
-0.985
-0.99
-0.995
-0.975
-0.98
-0.97
-0.965
-0.98
-0.98
-0.995
-0.995
-1.01
-1.015
-1.01
-0.995
-1.0
-0.99
-0.98
-0.975
-1.0
-1.015
-1.005
-0.985
-1.0
-0.99
-1.005
-1.01
-0.99
-0.99
-0.975
-0.97
-0.99
-0.985
-0.99
-0.99
-0.995
-0.995
-0.985
-0.985
-0.97
-0.97
-0.955
-0.96
-0.96
-0.965
-0.96
-0.97
-0.97
-0.975
-0.97
-0.955
-0.945
-0.92
-0.92
-0.885
-0.885
-0.85
-0.85
-0.85
-0.835
-0.835
-0.81
-0.785
-0.765
-0.69
-0.64
-0.59
-0.575
-0.56
-0.58
-0.595
-0.615
-0.61
-0.62
-0.64
-0.64
-0.65
-0.695
-0.74
-0.79
-0.855
-0.91
-0.975
-0.995
-0.99
-0.99
-0.985
-0.985
-0.975
-0.96
-0.955
-0.955
-0.97
-0.975
-0.98
-0.995
-0.995
-1.0
-0.985
-0.975
-0.975
-0.955
-0.95
-0.975
-1.0
-1.03
-1.065
-1.04
-0.975
-0.82
-0.585
-0.28
0.09
0.485
0.865
1.125
1.285
1.315
1.235
1.025
0.67
0.175
-0.34
-0.785
-1.025
-1.065
-0.965
-0.85
-0.75
-0.715
-0.735
-0.81
-0.885
-0.935
-0.985
-0.98
-0.99
-0.97
-0.975
-0.98
-0.98
-0.98
-0.985
-1.0
-1.035
-1.01
-1.01
-0.995
-1.005
-0.985
-0.985
-0.985
-0.99
-1.005
-1.035
-1.025
-1.02
-1.02
-1.035
-1.01
-0.985
-0.98
-0.99
-0.99
-1.0
-1.015
-1.02
-1.035
-1.035
-1.03
-1.025
-1.015
-1.0
-0.98
-0.99
-0.99
-0.985
-0.995
-1.0
-0.995
-0.99
-0.985
-0.99
-0.96
-0.955
-0.955
-0.94
-0.93
-0.915
-0.92
-0.925
-0.91
-0.91
-0.9
-0.89
-0.865
-0.85
-0.83
-0.81
-0.8
-0.8
-0.805
-0.795
-0.795
-0.78
-0.76
-0.74
-0.72
-0.69
-0.67
-0.645
-0.635
-0.635
-0.62
-0.625
-0.63
-0.595
-0.58
-0.56
-0.54
-0.515
-0.485
-0.47
-0.455
-0.45
-0.45
-0.46
-0.435
-0.425
-0.435
-0.41
-0.39
-0.38
-0.385
-0.385
-0.39
-0.405
-0.45
-0.48
-0.49
-0.515
-0.54
-0.55
-0.575
-0.58
-0.59
-0.615
-0.65
-0.665
-0.715
-0.73
-0.745
-0.765
-0.77
-0.8
-0.795
-0.81
-0.805
-0.81
-0.82
-0.835
-0.835
-0.845
-0.85
-0.86
-0.86
-0.845
-0.85
-0.845
-0.85
-0.84
-0.83
-0.835
-0.835
-0.855
-0.845
-0.835
-0.835
-0.83
-0.81
-0.81
-0.795
-0.79
-0.8
-0.795
-0.805
-0.805
-0.81
-0.805
-0.81
-0.81
-0.775
-0.755
-0.695
-0.615
-0.49
-0.365
-0.215
-0.1
0.085
0.28
0.475
0.705
0.95
1.19
1.42
1.59
1.76
1.88
2.02
2.1
2.165
2.18
2.185
2.15
2.11
2.045
1.94
1.865
1.82
1.78
1.78
1.77
1.75
1.68
1.57
1.415
1.275
1.095
0.895
0.645
0.31
-0.065
-0.44
-0.765
-0.98
-1.07
-1.09
-1.08
-1.075
-1.065
-1.09
-1.125
-1.18
-1.22
-1.28
-1.325
-1.355
-1.355
-1.375
-1.38
-1.38
-1.385
-1.395
-1.41
-1.42
-1.455
-1.46
-1.475
-1.5
-1.52
-1.54
-1.545
-1.545
-1.555
-1.54
-1.525
-1.53
-1.555
-1.535
-1.55
-1.57
-1.555
-1.57
-1.57
-1.565
-1.545
-1.545
-1.535
-1.525
-1.51
-1.515
-1.525
-1.56
-1.585
-1.625
-1.665
-1.685
-1.685
-1.705
-1.75
-1.79
-1.86
-1.925
-2.015
-2.075
-2.14
-2.2
-2.235
-2.265
-2.275
-2.285
-2.3
-2.34
-2.355
-2.37
-2.405
-2.435
-2.445
-2.47
-2.47
-2.45
-2.445
-2.4
-2.415
-2.385
-2.375
-2.37
-2.355
-2.345
-2.32
-2.285
-2.245
-2.2
-2.145
-2.095
-2.045
-2.0
-1.955
-1.895
-1.86
-1.82
-1.76
-1.735
-1.66
-1.605
-1.55
-1.49
-1.45
-1.4
-1.39
-1.37
-1.365
-1.35
-1.34
-1.33
-1.3
-1.295
-1.27
-1.265
-1.265
-1.275
-1.26
-1.275
-1.28
-1.265
-1.27
-1.27
-1.27
-1.27
-1.265
-1.255
-1.24
-1.245
-1.245
-1.25
-1.25
-1.265
-1.265
-1.255
-1.25
-1.225
-1.225
-1.215
-1.2
-1.22
-1.215
-1.225
-1.23
-1.26
-1.235
-1.23
-1.235
-1.22
-1.205
-1.195
-1.2
-1.21
-1.195
-1.205
-1.205
-1.205
-1.205
-1.22
-1.23
-1.21
-1.2
-1.19
-1.195
-1.2
-1.185
-1.18
-1.2
-1.205
-1.195
-1.195
-1.195
-1.185
-1.19
-1.175
-1.165
-1.16
-1.16
-1.155
-1.18
-1.175
-1.18
-1.18
-1.17
-1.185
-1.16
-1.145
-1.14
-1.155
-1.14
-1.15
-1.16
-1.17
-1.17
-1.17
-1.18
-1.17
-1.16
-1.145
-1.135
-1.145
-1.145
-1.16
-1.16
-1.155
-1.15
-1.165
-1.145
-1.15
-1.15
-1.135
-1.135
-1.135
-1.125
-1.14
-1.135
-1.14
-1.15
-1.145
-1.15
-1.13
-1.13
-1.14
-1.11
-1.115
-1.13
-1.145
-1.13
-1.13
-1.135
-1.13
-1.135
-1.13
-1.12
-1.12
-1.1
-1.115
-1.135
-1.145
-1.15
-1.135
-1.13
-1.135
-1.13
-1.115
-1.11
-1.1
-1.09
-1.09
-1.095
-1.115
-1.105
-1.14
-1.12
-1.14
-1.105
-1.11
-1.095
-1.095
-1.075
-1.095
-1.09
-1.11
-1.115
-1.115
-1.115
-1.125
-1.13
-1.105
-1.095
-1.1
-1.085
-1.09
-1.085
-1.115
-1.09
-1.105
-1.095
-1.11
-1.105
-1.09
-1.085
-1.085
-1.08
-1.07
-1.06
-1.075
-1.085
-1.085
-1.095
-1.1
-1.095
-1.085
-1.07
-1.055
-1.06
-1.07
-1.095
-1.07
-1.085
-1.095
-1.09
-1.095
-1.09
-1.09
-1.075
-1.095
-1.07
-1.075
-1.08
-1.075
-1.08
-1.07
-1.09
-1.085
-1.08
-1.08
-1.08
-1.06
-1.055
-1.06
-1.07
-1.07
-1.085
-1.08
-1.1
-1.105
-1.07
-1.075
-1.065
-1.065
-1.055
-1.06
-1.06
-1.065
-1.06
-1.065
-1.07
-1.095
-1.065
-1.065
-1.045
-1.07
-1.055
-1.04
-1.05
-1.055
-1.06
-1.06
-1.065
-1.075
-1.065
-1.065
-1.045
-1.035
-1.06
-1.04
-1.045
-1.06
-1.05
-1.045
-1.05
-1.065
-1.065
-1.06
-1.035
-1.02
-1.025
-1.035
-1.025
-1.015
-1.025
-1.025
-1.03
-1.025
-1.0
-0.97
-0.955
-0.925
-0.9
-0.88
-0.865
-0.87
-0.86
-0.84
-0.825
-0.795
-0.74
-0.71
-0.67
-0.665
-0.66
-0.645
-0.665
-0.7
-0.71
-0.71
-0.72
-0.755
-0.8
-0.825
-0.87
-0.905
-0.95
-0.98
-1.035
-1.03
-1.035
-1.05
-1.04
-1.055
-1.05
-1.055
-1.055
-1.025
-1.035
-1.03
-1.015
-1.03
-1.05
-1.055
-1.06
-1.055
-1.045
-1.045
-1.04
-1.035
-1.055
-1.06
-1.07
-1.02
-0.945
-0.81
-0.595
-0.315
0.015
0.4
0.745
1.005
1.14
1.17
1.085
0.895
0.605
0.22
-0.23
-0.67
-0.97
-1.09
-1.05
-0.96
-0.845
-0.78
-0.77
-0.81
-0.885
-0.945
-0.99
-1.035
-1.045
-1.045
-1.045
-1.03
-1.035
-1.055
-1.04
-1.035
-1.055
-1.065
-1.07
-1.075
-1.085
-1.07
-1.07
-1.07
-1.075
-1.085
-1.07
-1.095
-1.1
-1.105
-1.105
-1.1
-1.105
-1.09
-1.075
-1.06
-1.075
-1.065
-1.07
-1.08
-1.075
-1.09
-1.09
-1.1
-1.09
-1.09
-1.06
-1.07
-1.05
-1.045
-1.04
-1.055
-1.05
-1.055
-1.07
-1.07
-1.045
-1.035
-1.02
-1.005
-0.995
-0.995
-0.98
-0.995
-0.995
-1.005
-1.0
-0.985
-0.98
-0.95
-0.93
-0.91
-0.9
-0.86
-0.85
-0.86
-0.855
-0.835
-0.82
-0.825
-0.795
-0.79
-0.76
-0.72
-0.7
-0.69
-0.67
-0.655
-0.66
-0.655
-0.645
-0.63
-0.62
-0.59
-0.575
-0.57
-0.55
-0.525
-0.51
-0.51
-0.515
-0.505
-0.495
-0.5
-0.485
-0.475
-0.495
-0.495
-0.49
-0.485
-0.505
-0.535
-0.56
-0.6
-0.625
-0.655
-0.665
-0.685
-0.695
-0.715
-0.72
-0.755
-0.77
-0.8
-0.825
-0.855
-0.88
-0.87
-0.865
-0.875
-0.875
-0.87
-0.885
-0.885
-0.89
-0.89
-0.905
-0.935
-0.93
-0.945
-0.93
-0.92
-0.91
-0.895
-0.89
-0.885
-0.88
-0.89
-0.905
-0.89
-0.905
-0.905
-0.895
-0.885
-0.87
-0.855
-0.85
-0.84
-0.87
-0.86
-0.885
-0.88
-0.865
-0.87
-0.855
-0.85
-0.825
-0.825
-0.82
-0.815
-0.825
-0.84
-0.83
-0.84
-0.825
-0.775
-0.695
-0.57
-0.45
-0.29
-0.13
0.035
0.21
0.42
0.64
0.85
1.065
1.275
1.485
1.66
1.835
1.94
2.025
2.065
2.09
2.075
2.04
1.975
1.91
1.83
1.775
1.75
1.745
1.74
1.745
1.76
1.71
1.625
1.52
1.34
1.16
0.965
0.75
0.5
0.195
-0.155
-0.5
-0.795
-0.98
-1.07
-1.09
-1.11
-1.11
-1.145
-1.155
-1.215
-1.25
-1.31
-1.32
-1.35
-1.365
-1.365
-1.385
-1.405
-1.425
-1.45
-1.475
-1.47
-1.455
-1.455
-1.46
-1.47
-1.485
-1.49
-1.5
-1.495
-1.51
-1.505
-1.5
-1.505
-1.5
-1.5
-1.495
-1.51
-1.505
-1.48
-1.48
-1.485
-1.49
-1.525
-1.53
-1.55
-1.57
-1.61
-1.615
-1.635
-1.68
-1.745
-1.81
-1.89
-1.98
-2.055
-2.13
-2.195
-2.23
-2.235
-2.255
-2.28
-2.325
-2.365
-2.38
-2.425
-2.44
-2.465
-2.485
-2.5
-2.5
-2.5
-2.5
-2.5
-2.49
-2.49
-2.48
-2.46
-2.465
-2.445
-2.44
-2.415
-2.375
-2.33
-2.27
-2.225
-2.165
-2.13
-2.09
-2.05
-2.015
-1.96
-1.905
-1.85
-1.79
-1.73
-1.65
-1.595
-1.56
-1.5
-1.47
-1.435
-1.425
-1.415
-1.39
-1.36
-1.335
-1.305
-1.28
-1.275
-1.27
-1.27
-1.285
-1.29
-1.295
-1.29
-1.305
-1.29
-1.29
-1.255
-1.27
-1.25
-1.26
-1.255
-1.255
-1.275
-1.275
-1.29
-1.27
-1.26
-1.24
-1.245
-1.24
-1.225
-1.225
-1.24
-1.235
-1.24
-1.245
-1.25
-1.245
-1.23
-1.225
-1.225
-1.22
-1.205
-1.2
-1.215
-1.215
-1.215
-1.215
-1.235
-1.24
-1.21
-1.2
-1.19
-1.185
-1.175
-1.17
-1.19
-1.195
-1.2
-1.205
-1.21
-1.205
-1.195
-1.19
-1.19
-1.17
-1.18
-1.17
-1.175
-1.185
-1.185
-1.2
-1.21
-1.19
-1.18
-1.175
-1.175
-1.16
-1.16
-1.16
-1.165
-1.165
-1.16
-1.18
-1.175
-1.175
-1.165
-1.15
-1.15
-1.14
-1.145
-1.13
-1.135
-1.175
-1.175
-1.185
-1.175
-1.17
-1.175
-1.17
-1.16
-1.135
-1.125
-1.13
-1.145
-1.155
-1.16
-1.165
-1.175
-1.175
-1.165
-1.165
-1.13
-1.12
-1.11
-1.12
-1.14
-1.135
-1.14
-1.145
-1.155
-1.15
-1.135
-1.115
-1.1
-1.09
-1.095
-1.11
-1.11
-1.1
-1.115
-1.13
-1.135
-1.125
-1.125
-1.125
-1.105
-1.105
-1.105
-1.075
-1.085
-1.09
-1.13
-1.125
-1.13
-1.125
-1.105
-1.1
-1.08
-1.075
-1.06
-1.06
-1.065
-1.07
-1.095
-1.095
-1.095
-1.105
-1.085
-1.08
-1.065
-1.06
-1.065
-1.065
-1.06
-1.07
-1.09
-1.095
-1.105
-1.1
-1.09
-1.095
-1.08
-1.065
-1.055
-1.075
-1.075
-1.085
-1.09
-1.105
-1.11
-1.095
-1.08
-1.07
-1.06
-1.065
-1.055
-1.045
-1.045
-1.055
-1.05
-1.05
-1.05
-1.06
-1.05
-1.055
-1.045
-1.03
-1.045
-1.035
-1.035
-1.055
-1.06
-1.08
-1.085
-1.08
-1.07
-1.06
-1.035
-1.015
-1.015
-1.015
-1.03
-1.045
-1.055
-1.07
-1.07
-1.06
-1.07
-1.055
-1.05
-1.03
-1.015
-1.01
-1.02
-1.025
-1.035
-1.065
-1.075
-1.08
-1.08
-1.035
-1.02
-1.015
-1.015
-1.03
-1.04
-1.03
-1.045
-1.05
-1.04
-1.06
-1.055
-1.045
-1.045
-1.02
-1.02
-1.01
-1.015
-1.05
-1.035
-1.055
-1.05
-1.045
-1.03
-1.04
-1.025
-1.03
-1.02
-1.02
-1.025
-1.04
-1.045
-1.045
-1.055
-1.05
-1.04
-1.04
-1.02
-1.005
-0.995
-0.975
-0.975
-0.99
-0.975
-0.965
-0.945
-0.94
-0.92
-0.895
-0.89
-0.86
-0.85
-0.83
-0.805
-0.795
-0.77
-0.725
-0.705
-0.69
-0.705
-0.7
-0.71
-0.725
-0.745
-0.775
-0.805
-0.825
-0.87
-0.925
-0.975
-1.005
-1.035
-1.045
-1.04
-1.03
-1.035
-1.01
-1.015
-1.02
-1.03
-1.035
-1.055
-1.045
-1.045
-1.03
-1.03
-1.025
-1.01
-1.005
-1.015
-1.02
-1.035
-1.05
-1.075
-1.08
-1.095
-1.075
-1.01
-0.89
-0.72
-0.47
-0.18
0.205
0.56
0.91
1.145
1.28
1.29
1.16
0.885
0.455
-0.085
-0.63
-0.99
-1.15
-1.13
-1.015
-0.875
-0.785
-0.76
-0.815
-0.9
-0.93
-0.985
-1.015
-1.035
-1.03
-1.055
-1.06
-1.05
-1.06
-1.06
-1.04
-1.04
-1.045
-1.05
-1.035
-1.04
-1.04
-1.06
-1.075
-1.065
-1.075
-1.08
-1.07
-1.06
-1.055
-1.045
-1.045
-1.06
-1.075
-1.075
-1.09
-1.095
-1.085
-1.085
-1.08
-1.065
-1.045
-1.05
-1.05
-1.035
-1.045
-1.06
-1.06
-1.05
-1.04
-1.05
-1.03
-1.02
-1.015
-1.0
-1.005
-0.99
-1.0
-0.99
-1.0
-0.985
-0.98
-0.975
-0.95
-0.93
-0.93
-0.925
-0.905
-0.9
-0.895
-0.885
-0.89
-0.875
-0.855
-0.835
-0.83
-0.79
-0.77
-0.745
-0.75
-0.72
-0.715
-0.71
-0.7
-0.69
-0.67
-0.64
-0.635
-0.595
-0.595
-0.57
-0.57
-0.555
-0.545
-0.525
-0.525
-0.505
-0.51
-0.485
-0.455
-0.435
-0.425
-0.4
-0.405
-0.43
-0.445
-0.45
-0.465
-0.48
-0.505
-0.515
-0.53
-0.54
-0.555
-0.58
-0.59
-0.635
-0.665
-0.695
-0.73
-0.75
-0.79
-0.79
-0.795
-0.795
-0.795
-0.795
-0.8
-0.825
-0.825
-0.83
-0.855
-0.865
-0.87
-0.865
-0.87
-0.86
-0.855
-0.845
-0.85
-0.855
-0.855
-0.865
-0.86
-0.87
-0.85
-0.84
-0.835
-0.825
-0.815
-0.795
-0.805
-0.82
-0.805
-0.81
-0.82
-0.83
-0.845
-0.825
-0.84
-0.815
-0.815
-0.795
-0.76
-0.7
-0.635
-0.53
-0.395
-0.25
-0.085
0.12
0.325
0.545
0.795
1.05
1.3
1.53
1.745
1.915
2.065
2.16
2.24
2.29
2.305
2.29
2.24
2.185
2.07
1.965
1.89
1.845
1.82
1.83
1.835
1.795
1.71
1.57
1.425
1.235
1.01
0.715
0.405
0.0
-0.4
-0.735
-0.975
-1.075
-1.09
-1.08
-1.065
-1.07
-1.105
-1.165
-1.23
-1.285
-1.32
-1.35
-1.36
-1.375
-1.38
-1.375
-1.375
-1.41
-1.42
-1.425
-1.445
-1.465
-1.485
-1.5
-1.51
-1.53
-1.525
-1.525
-1.535
-1.535
-1.55
-1.575
-1.595
-1.625
-1.645
-1.66
-1.675
-1.685
-1.68
-1.69
-1.695
-1.68
-1.7
-1.71
-1.725
-1.755
-1.75
-1.78
-1.775
-1.78
-1.775
-1.755
-1.75
-1.74
-1.755
-1.825
-1.865
-1.92
-1.995
-2.04
-2.09
-2.13
-2.15
-2.18
-2.2
-2.245
-2.28
-2.335
-2.38
-2.425
-2.46
-2.47
-2.48
-2.465
-2.46
-2.455
-2.445
-2.43
-2.42
-2.425
-2.385
-2.37
-2.345
-2.315
-2.275
-2.235
-2.175
-2.125
-2.07
-2.01
-1.96
-1.9
-1.85
-1.81
-1.755
-1.685
-1.64
-1.585
-1.525
-1.475
-1.43
-1.37
-1.34
-1.315
-1.29
-1.295
-1.27
-1.26
-1.24
-1.225
-1.21
-1.2
-1.18
-1.18
-1.17
-1.18
-1.17
-1.175
-1.195
-1.195
-1.205
-1.205
-1.205
-1.19
-1.18
-1.17
-1.165
-1.165
-1.165
-1.17
-1.17
-1.165
-1.165
-1.135
-1.145
-1.13
-1.13
-1.12
-1.115
-1.135
-1.14
-1.125
-1.15
-1.15
-1.155
-1.14
-1.12
-1.125
-1.12
-1.105
-1.095
-1.095
-1.105
-1.105
-1.135
-1.11
-1.115
-1.115
-1.095
-1.09
-1.075
-1.075
-1.08
-1.08
-1.095
-1.1
-1.1
-1.105
-1.1
-1.1
-1.095
-1.085
-1.07
-1.05
-1.055
-1.06
-1.075
-1.075
-1.095
-1.1
-1.095
-1.1
-1.09
-1.06
-1.065
-1.07
-1.08
-1.065
-1.07
-1.075
-1.085
-1.09
-1.095
-1.095
-1.085
-1.08
-1.065
-1.04
-1.055
-1.06
-1.055
-1.05
-1.07
-1.06
-1.065
-1.06
-1.04
-1.035
-1.035
-1.02
-1.04
-1.03
-1.045
-1.055
-1.055
-1.06
-1.045
-1.05
-1.035
-1.025
-1.015
-1.015
-1.025
-1.025
-1.025
-1.03
-1.05
-1.05
-1.045
-1.04
-1.035
-1.015
-1.005
-0.995
-1.02
-1.005
-1.015
-1.03
-1.04
-1.045
-1.035
-1.025
-1.01
-1.005
-0.99
-1.005
-0.99
-1.0
-1.01
-1.03
-1.02
-1.025
-1.02
-1.025
-1.005
-0.995
-1.0
-1.0
-1.02
-1.01
-1.02
-1.01
-1.03
-1.02
-1.02
-1.025
-1.005
-0.995
-0.98
-0.975
-0.98
-0.975
-0.985
-1.0
-1.005
-1.015
-1.02
-1.005
-1.0
-0.995
-0.98
-0.96
-0.97
-0.97
-0.975
-0.98
-0.99
-1.0
-0.99
-1.0
-0.98
-0.98
-0.965
-0.95
-0.975
-0.95
-0.97
-0.99
-0.99
-0.97
-0.975
-0.965
-0.965
-0.955
-0.945
-0.935
-0.94
-0.96
-0.95
-0.965
-0.995
-0.98
-0.975
-0.97
-0.95
-0.94
-0.92
-0.915
-0.905
-0.905
-0.92
-0.925
-0.935
-0.945
-0.93
-0.93
-0.925
-0.91
-0.895
-0.895
-0.895
-0.91
-0.91
-0.925
-0.925
-0.92
-0.925
-0.92
-0.905
-0.885
-0.89
-0.89
-0.895
-0.9
-0.895
-0.91
-0.905
-0.915
-0.935
-0.93
-0.915
-0.9
-0.9
-0.885
-0.88
-0.89
-0.9
-0.915
-0.91
-0.915
-0.91
-0.91
-0.915
-0.9
-0.885
-0.87
-0.89
-0.89
-0.91
-0.915
-0.9
-0.905
-0.925
-0.915
-0.895
-0.88
-0.87
-0.855
-0.845
-0.86
-0.83
-0.835
-0.83
-0.805
-0.795
-0.76
-0.74
-0.705
-0.69
-0.675
-0.65
-0.625
-0.595
-0.57
-0.555
-0.55
-0.565
-0.605
-0.61
-0.62
-0.63
-0.64
-0.655
-0.68
-0.72
-0.755
-0.8
-0.845
-0.885
-0.9
-0.9
-0.9
-0.88
-0.87
-0.87
-0.88
-0.89
-0.895
-0.895
-0.895
-0.895
-0.91
-0.89
-0.875
-0.865
-0.85
-0.865
-0.865
-0.875
-0.885
-0.895
-0.895
-0.895
-0.925
-0.94
-0.94
-0.91
-0.855
-0.74
-0.575
-0.37
-0.105
0.23
0.57
0.915
1.185
1.35
1.415
1.375
1.255
1.0
0.615
0.13
-0.39
-0.785
-0.975
-0.995
-0.87
-0.75
-0.63
-0.61
-0.625
-0.695
-0.77
-0.82
-0.865
-0.885
-0.9
-0.895
-0.89
-0.89
-0.89
-0.89
-0.9
-0.905
-0.92
-0.93
-0.945
-0.95
-0.955
-0.94
-0.935
-0.945
-0.93
-0.92
-0.915
-0.92
-0.92
-0.92
-0.925
-0.935
-0.925
-0.935
-0.94
-0.93
-0.925
-0.92
-0.905
-0.915
-0.92
-0.925
-0.935
-0.94
-0.94
-0.935
-0.94
-0.925
-0.91
-0.905
-0.89
-0.885
-0.89
-0.9
-0.895
-0.905
-0.895
-0.905
-0.91
-0.88
-0.88
-0.855
-0.845
-0.83
-0.83
-0.835
-0.835
-0.815
-0.82
-0.82
-0.8
-0.795
-0.785
-0.775
-0.745
-0.755
-0.735
-0.73
-0.715
-0.695
-0.685
-0.68
-0.66
-0.645
-0.61
-0.59
-0.57
-0.54
-0.545
-0.53
-0.52
-0.515
-0.515
-0.52
-0.5
-0.49
-0.465
-0.445
-0.39
-0.385
-0.37
-0.355
-0.36
-0.355
-0.35
-0.355
-0.35
-0.335
-0.335
-0.345
-0.335
-0.37
-0.4
-0.41
-0.435
-0.455
-0.485
-0.495
-0.505
-0.55
-0.565
-0.58
-0.575
-0.615
-0.625
-0.675
-0.715
-0.71
-0.725
-0.745
-0.77
-0.775
-0.78
-0.79
-0.775
-0.795
-0.815
-0.835
-0.85
-0.825
-0.83
-0.845
-0.835
-0.845
-0.825
-0.84
-0.825
-0.82
-0.82
-0.82
-0.845
-0.84
-0.84
-0.84
-0.835
-0.825
-0.82
-0.8
-0.79
-0.805
-0.82
-0.82
-0.805
-0.81
-0.82
-0.825
-0.82
-0.82
-0.795
-0.775
-0.765
-0.775
-0.78
-0.78
-0.8
-0.81
-0.825
-0.82
-0.81
-0.82
-0.8
-0.81
-0.795
-0.82
-0.825
-0.835
-0.83
-0.835
-0.845
-0.845
-0.87
-0.865
-0.85
-0.85
-0.855
-0.845
-0.855
-0.86
-0.86
-0.865
-0.87
-0.87
-0.88
-0.88
-0.875
-0.875
-0.875
-0.875
-0.89
-0.895
-0.905
-0.915
-0.915
-0.925
-0.91
-0.92
-0.905
-0.9
-0.9
-0.905
-0.9
-0.915
-0.93
-0.935
-0.935
-0.96
-0.935
-0.925
-0.925
-0.91
-0.915
-0.905
-0.895
-0.895
-0.895
-0.895
-0.9
-0.87
-0.855
-0.84
-0.82
-0.81
-0.785
-0.775
-0.76
-0.745
-0.735
-0.7
-0.645
-0.615
-0.59
-0.585
-0.585
-0.585
-0.59
-0.595
-0.61
-0.63
-0.67
-0.74
-0.785
-0.845
-0.885
-0.925
-0.945
-0.95
-0.96
-0.96
-0.955
-0.955
-0.985
-0.985
-1.0
-1.0
-1.005
-1.01
-0.985
-0.975
-0.97
-0.965
-0.975
-0.975
-0.99
-0.99
-1.005
-0.995
-0.985
-1.0
-0.995
-0.99
-0.975
-0.98
-0.99
-1.02
-1.05
-1.05
-1.0
-0.89
-0.72
-0.445
-0.1
0.3
0.685
1.0
1.2
1.325
1.28
1.135
0.825
0.31
-0.255
-0.76
-1.06
-1.15
-1.075
-0.92
-0.795
-0.74
-0.75
-0.805
-0.89
-0.935
-0.98
-1.01
-1.0
-0.985
-0.98
-0.985
-0.985
-0.975
-0.99
-1.0
-1.02
-1.01
-1.015
-1.025
-1.01
-1.015
-0.985
-0.995
-1.005
-1.01
-1.015
-1.035
-1.01
-1.0
-1.015
-1.005
-0.99
-0.99
-0.985
-0.99
-0.995
-1.005
-1.015
-1.015
-1.01
-1.015
-1.01
-0.995
-1.005
-1.0
-0.99
-0.98
-0.965
-0.985
-1.01
-1.005
-1.005
-0.975
-0.98
-0.975
-0.95
-0.935
-0.91
-0.91
-0.89
-0.895
-0.9
-0.9
-0.895
-0.89
-0.895
-0.86
-0.83
-0.815
-0.8
-0.77
-0.765
-0.755
-0.765
-0.735
-0.735
-0.72
-0.71
-0.67
-0.64
-0.6
-0.57
-0.55
-0.52
-0.525
-0.505
-0.515
-0.485
-0.475
-0.465
-0.445
-0.445
-0.405
-0.395
-0.365
-0.375
-0.38
-0.375
-0.415
-0.41
-0.415
-0.425
-0.445
-0.455
-0.475
-0.49
-0.5
-0.54
-0.58
-0.6
-0.64
-0.675
-0.705
-0.73
-0.76
-0.76
-0.775
-0.805
-0.82
-0.845
-0.865
-0.89
-0.905
-0.92
-0.925
-0.93
-0.945
-0.95
-0.945
-0.95
-0.96
-0.96
-0.96
-0.985
-0.995
-0.99
-1.0
-1.0
-1.005
-0.99
-0.975
-0.97
-0.96
-0.955
-0.97
-0.955
-0.95
-0.96
-0.96
-0.97
-0.98
-0.96
-0.925
-0.915
-0.915
-0.905
-0.925
-0.915
-0.915
-0.94
-0.935
-0.925
-0.91
-0.905
-0.915
-0.92
-0.9
-0.895
-0.9
-0.91
-0.91
-0.9
-0.905
-0.915
-0.9
-0.91
-0.925
-0.9
-0.9
-0.905
-0.92
-0.925
-0.93
-0.94
-0.93
-0.935
-0.92
-0.925
-0.93
-0.93
-0.915
-0.925
-0.945
-0.95
-0.96
-0.98
-0.99
-0.98
-0.96
-0.965
-0.945
-0.94
-0.96
-0.96
-0.965
-0.96
-0.965
-0.965
-0.96
-0.955
-0.96
-0.94
-0.945
-0.935
-0.955
-0.94
-0.955
-0.96
-0.97
-0.98
-0.965
-0.965
-0.95
-0.96
-0.935
-0.93
-0.925
-0.92
-0.92
-0.915
-0.91
-0.915
-0.89
-0.87
-0.855
-0.825
-0.815
-0.8
-0.77
-0.765
-0.74
-0.7
-0.67
-0.64
-0.625
-0.64
-0.64
-0.63
-0.625
-0.625
-0.62
-0.65
-0.68
-0.71
-0.74
-0.795
-0.83
-0.9
-0.935
-0.955
-0.975
-0.98
-0.985
-1.02
-0.985
-0.985
-0.995
-1.015
-1.015
-1.02
-1.01
-1.01
-1.0
-1.005
-1.01
-1.005
-1.005
-1.01
-1.015
-1.035
-1.005
-1.005
-1.015
-1.0
-0.975
-0.98
-0.985
-0.995
-1.025
-1.06
-1.045
-1.005
-0.89
-0.72
-0.48
-0.135
0.255
0.67
1.025
1.245
1.345
1.335
1.185
0.95
0.58
0.07
-0.45
-0.89
-1.1
-1.13
-1.03
-0.895
-0.78
-0.75
-0.765
-0.83
-0.895
-0.95
-1.005
-1.005
-0.98
-0.975
-0.97
-0.96
-0.98
-0.995
-1.015
-1.01
-1.015
-1.02
-1.02
-1.01
-1.005
-0.995
-0.99
-0.99
-1.005
-1.02
-1.005
-1.03
-1.045
-1.035
-1.035
-1.025
-1.005
-1.005
-1.005
-0.995
-1.01
-1.01
-1.03
-1.03
-1.035
-1.035
-1.015
-1.01
-1.0
-0.99
-0.985
-0.99
-0.995
-1.0
-0.99
-0.99
-0.98
-0.975
-0.97
-0.955
-0.95
-0.925
-0.925
-0.92
-0.93
-0.93
-0.915
-0.92
-0.905
-0.9
-0.895
-0.865
-0.84
-0.835
-0.82
-0.8
-0.785
-0.785
-0.765
-0.775
-0.735
-0.715
-0.69
-0.67
-0.635
-0.605
-0.58
-0.58
-0.56
-0.555
-0.545
-0.525
-0.515
-0.49
-0.465
-0.445
-0.41
-0.4
-0.395
-0.375
-0.365
-0.38
-0.35
-0.36
-0.36
-0.34
-0.35
-0.335
-0.34
-0.35
-0.37
-0.4
-0.425
-0.48
-0.515
-0.55
-0.585
-0.615
-0.64
-0.67
-0.69
-0.715
-0.735
-0.775
-0.79
-0.825
-0.86
-0.88
-0.905
-0.915
-0.93
-0.905
-0.905
-0.91
-0.9
-0.915
-0.93
-0.955
-0.97
-0.965
-0.975
-0.965
-0.96
-0.965
-0.95
-0.95
-0.945
-0.945
-0.945
-0.955
-0.99
-0.99
-0.99
-0.98
-0.965
-0.93
-0.93
-0.93
-0.915
-0.925
-0.935
-0.94
-0.93
-0.94
-0.95
-0.925
-0.925
-0.915
-0.9
-0.89
-0.89
-0.88
-0.89
-0.89
-0.89
-0.915
-0.93
-0.915
-0.915
-0.915
-0.9
-0.9
-0.9
-0.9
-0.885
-0.905
-0.895
-0.905
-0.915
-0.915
-0.895
-0.91
-0.89
-0.88
-0.88
-0.905
-0.91
-0.915
-0.92
-0.935
-0.94
-0.935
-0.93
-0.945
-0.925
-0.94
-0.93
-0.935
-0.945
-0.955
-0.98
-0.99
-0.975
-0.96
-0.96
-0.955
-0.945
-0.94
-0.935
-0.955
-0.945
-0.955
-0.96
-0.975
-0.985
-0.97
-0.985
-0.965
-0.975
-0.965
-0.96
-0.955
-0.96
-0.96
-0.965
-0.965
-0.97
-0.975
-0.955
-0.955
-0.94
-0.935
-0.915
-0.925
-0.9
-0.9
-0.885
-0.875
-0.845
-0.845
-0.825
-0.81
-0.78
-0.73
-0.69
-0.655
-0.63
-0.625
-0.625
-0.625
-0.665
-0.665
-0.665
-0.67
-0.68
-0.69
-0.74
-0.76
-0.82
-0.88
-0.955
-1.0
-1.04
-1.035
-1.04
-1.03
-1.02
-1.005
-1.015
-1.015
-1.01
-1.025
-1.03
-1.045
-1.045
-1.04
-1.035
-1.045
-1.045
-1.04
-1.035
-1.035
-1.03
-1.04
-1.06
-1.065
-1.055
-1.035
-1.02
-1.03
-1.02
-1.015
-1.025
-1.065
-1.09
-1.105
-1.085
-1.02
-0.885
-0.72
-0.465
-0.16
0.17
0.535
0.86
1.09
1.235
1.255
1.21
1.085
0.86
0.485
-0.005
-0.51
-0.93
-1.14
-1.14
-1.035
-0.9
-0.805
-0.77
-0.79
-0.845
-0.92
-0.98
-1.0
-1.01
-1.005
-1.015
-1.0
-1.01
-1.025
-1.025
-1.035
-1.05
-1.055
-1.05
-1.04
-1.045
-1.025
-1.02
-1.03
-1.04
-1.06
-1.065
-1.06
-1.07
-1.07
-1.06
-1.06
-1.05
-1.045
-1.04
-1.04
-1.065
-1.08
-1.08
-1.075
-1.09
-1.075
-1.05
-1.045
-1.045
-1.045
-1.035
-1.04
-1.025
-1.03
-1.035
-1.045
-1.04
-1.035
-1.02
-1.005
-1.01
-0.98
-0.995
-0.98
-0.96
-0.975
-0.96
-0.96
-0.955
-0.945
-0.935
-0.915
-0.895
-0.88
-0.865
-0.85
-0.85
-0.85
-0.845
-0.805
-0.8
-0.785
-0.755
-0.72
-0.705
-0.665
-0.64
-0.635
-0.625
-0.615
-0.605
-0.575
-0.55
-0.54
-0.495
-0.49
-0.46
-0.47
-0.445
-0.435
-0.42
-0.42
-0.42
-0.405
-0.42
-0.395
-0.4
-0.41
-0.41
-0.425
-0.45
-0.47
-0.51
-0.55
-0.6
-0.635
-0.675
-0.685
-0.71
-0.74
-0.77
-0.79
-0.82
-0.825
-0.86
-0.885
-0.905
-0.93
-0.945
-0.955
-0.965
-0.965
-0.975
-0.98
-0.97
-0.98
-0.99
-1.01
-1.015
-1.03
-1.03
-1.04
-1.04
-1.035
-1.05
-1.035
-1.035
-1.04
-1.035
-1.045
-1.055
-1.05
-1.065
-1.055
-1.045
-1.035
-1.03
-1.01
-1.0
-0.995
-1.01
-1.025
-1.04
-1.025
-1.03
-1.015
-1.015
-1.005
-0.985
-0.97
-0.97
-0.97
-0.965
-0.965
-0.975
-0.985
-0.985
-0.995
-0.995
-0.98
-0.97
-0.965
-0.96
-0.965
-0.975
-0.985
-0.99
-1.0
-0.995
-1.005
-1.0
-1.0
-0.985
-0.99
-0.995
-1.01
-1.015
-1.02
-1.04
-1.05
-1.05
-1.045
-1.04
-1.03
-1.025
-1.01
-1.015
-1.01
-1.01
-1.025
-1.03
-1.04
-1.05
-1.065
-1.06
-1.035
-1.02
-1.03
-1.025
-1.025
-1.03
-1.045
-1.05
-1.055
-1.065
-1.06
-1.06
-1.055
-1.04
-1.035
-1.025
-1.035
-1.03
-1.035
-1.03
-1.04
-1.025
-1.01
-1.0
-0.955
-0.93
-0.905
-0.9
-0.885
-0.87
-0.86
-0.85
-0.815
-0.78
-0.74
-0.7
-0.675
-0.68
-0.68
-0.67
-0.68
-0.705
-0.715
-0.745
-0.77
-0.8
-0.85
-0.905
-0.95
-0.975
-1.035
-1.06
-1.06
-1.08
-1.085
-1.095
-1.09
-1.1
-1.11
-1.105
-1.11
-1.09
-1.09
-1.095
-1.095
-1.1
-1.1
-1.11
-1.12
-1.125
-1.125
-1.115
-1.105
-1.11
-1.105
-1.09
-1.1
-1.09
-1.085
-1.1
-1.125
-1.15
-1.18
-1.17
-1.1
-1.0
-0.845
-0.615
-0.315
0.065
0.45
0.815
1.08
1.215
1.235
1.12
0.855
0.44
-0.085
-0.64
-1.055
-1.25
-1.235
-1.135
-0.98
-0.88
-0.86
-0.89
-0.945
-0.99
-1.03
-1.085
-1.1
-1.1
-1.095
-1.11
-1.11
-1.115
-1.105
-1.115
-1.105
-1.105
-1.105
-1.095
-1.095
-1.1
-1.105
-1.12
-1.12
-1.125
-1.135
-1.13
-1.12
-1.11
-1.105
-1.08
-1.085
-1.085
-1.09
-1.095
-1.09
-1.105
-1.105
-1.1
-1.105
-1.085
-1.07
-1.07
-1.08
-1.085
-1.07
-1.08
-1.08
-1.075
-1.08
-1.065
-1.055
-1.045
-1.04
-1.025
-1.02
-1.035
-1.015
-1.03
-1.025
-1.005
-0.995
-0.98
-0.97
-0.93
-0.915
-0.89
-0.875
-0.875
-0.88
-0.875
-0.845
-0.815
-0.805
-0.77
-0.74
-0.71
-0.695
-0.655
-0.625
-0.61
-0.6
-0.585
-0.575
-0.55
-0.53
-0.515
-0.5
-0.475
-0.45
-0.43
-0.42
-0.42
-0.41
-0.415
-0.42
-0.42
-0.415
-0.43
-0.455
-0.46
-0.465
-0.495
-0.52
-0.54
-0.565
-0.62
-0.645
-0.68
-0.725
-0.75
-0.775
-0.775
-0.8
-0.825
-0.845
-0.865
-0.895
-0.91
-0.945
-0.96
-0.975
-0.975
-0.975
-0.985
-0.995
-0.97
-0.985
-1.0
-1.005
-1.0
-1.005
-1.025
-1.025
-1.025
-1.01
-1.02
-1.005
-0.995
-1.005
-1.005
-1.025
-1.03
-1.03
-1.015
-1.04
-1.01
-0.99
-0.96
-0.96
-0.94
-0.94
-0.945
-0.965
-0.965
-0.975
-0.97
-0.975
-0.945
-0.88
-0.8
-0.69
-0.54
-0.38
-0.205
-0.025
0.185
0.4
0.62
0.875
1.13
1.385
1.605
1.785
1.92
2.04
2.105
2.14
2.16
2.11
2.065
2.015
1.92
1.82
1.735
1.71
1.71
1.73
1.74
1.72
1.705
1.62
1.505
1.345
1.175
0.97
0.715
0.37
-0.015
-0.435
-0.8
-1.065
-1.17
-1.21
-1.19
-1.175
-1.17
-1.195
-1.24
-1.29
-1.335
-1.38
-1.405
-1.44
-1.46
-1.475
-1.475
-1.5
-1.515
-1.54
-1.545
-1.545
-1.545
-1.56
-1.575
-1.58
-1.605
-1.62
-1.635
-1.64
-1.675
-1.655
-1.65
-1.67
-1.665
-1.68
-1.7
-1.7
-1.73
-1.73
-1.725
-1.735
-1.73
-1.725
-1.725
-1.745
-1.735
-1.745
-1.76
-1.735
-1.725
-1.735
-1.74
-1.75
-1.765
-1.78
-1.82
-1.845
-1.875
-1.895
-1.925
-1.975
-2.035
-2.115
-2.165
-2.245
-2.32
-2.365
-2.415
-2.44
-2.46
-2.47
-2.5
-2.51
-2.525
-2.515
-2.51
-2.525
-2.495
-2.47
-2.44
-2.395
-2.375
-2.335
-2.29
-2.25
-2.205
-2.165
-2.105
-2.045
-1.985
-1.915
-1.84
-1.785
-1.72
-1.675
-1.59
-1.565
-1.52
-1.485
-1.47
-1.435
-1.4
-1.375
-1.34
-1.33
-1.295
-1.285
-1.275
-1.29
-1.31
-1.305
-1.31
-1.295
-1.3
-1.31
-1.305
-1.29
-1.275
-1.26
-1.265
-1.28
-1.285
-1.285
-1.295
-1.295
-1.27
-1.27
-1.27
-1.24
-1.23
-1.24
-1.235
-1.245
-1.25
-1.26
-1.26
-1.255
-1.24
-1.245
-1.255
-1.24
-1.23
-1.22
-1.215
-1.225
-1.23
-1.23
-1.23
-1.23
-1.225
-1.22
-1.2
-1.195
-1.185
-1.2
-1.185
-1.195
-1.19
-1.2
-1.195
-1.19
-1.195
-1.18
-1.17
-1.165
-1.16
-1.16
-1.155
-1.17
-1.175
-1.2
-1.18
-1.2
-1.18
-1.17
-1.165
-1.145
-1.14
-1.13
-1.12
-1.15
-1.16
-1.165
-1.17
-1.185
-1.165
-1.155
-1.145
-1.155
-1.14
-1.125
-1.12
-1.125
-1.15
-1.15
-1.15
-1.165
-1.145
-1.145
-1.13
-1.13
-1.12
-1.115
-1.11
-1.125
-1.15
-1.14
-1.145
-1.17
-1.155
-1.14
-1.12
-1.11
-1.105
-1.11
-1.12
-1.11
-1.12
-1.13
-1.13
-1.145
-1.13
-1.125
-1.12
-1.105
-1.095
-1.1
-1.1
-1.11
-1.11
-1.125
-1.125
-1.125
-1.115
-1.1
-1.1
-1.075
-1.07
-1.075
-1.085
-1.105
-1.12
-1.125
-1.105
-1.11
-1.115
-1.105
-1.095
-1.08
-1.075
-1.07
-1.07
-1.085
-1.09
-1.105
-1.11
-1.105
-1.105
-1.095
-1.08
-1.07
-1.065
-1.06
-1.085
-1.08
-1.105
-1.1
-1.105
-1.095
-1.11
-1.1
-1.095
-1.1
-1.1
-1.08
-1.075
-1.08
-1.075
-1.09
-1.1
-1.105
-1.1
-1.105
-1.09
-1.055
-1.045
-1.05
-1.065
-1.065
-1.085
-1.085
-1.08
-1.09
-1.085
-1.08
-1.065
-1.06
-1.07
-1.07
-1.06
-1.05
-1.07
-1.075
-1.08
-1.085
-1.09
-1.08
-1.06
-1.05
-1.04
-1.05
-1.055
-1.06
-1.06
-1.075
-1.075
-1.1
-1.085
-1.075
-1.07
-1.06
-1.05
-1.045
-1.06
-1.07
-1.085
-1.085
-1.095
-1.09
-1.075
-1.08
-1.06
-1.07
-1.045
-1.04
-1.055
-1.045
-1.065
-1.07
-1.07
-1.07
-1.08
-1.07
-1.06
-1.06
-1.055
-1.05
-1.035
-1.04
-1.06
-1.065
-1.07
-1.095
-1.075
-1.065
-1.055
-1.045
-1.035
-1.04
-1.025
-1.04
-1.065
-1.06
-1.075
-1.065
-1.085
-1.065
-1.06
-1.045
-1.035
-1.025
-1.05
-1.035
-1.05
-1.055
-1.065
-1.06
-1.06
-1.07
-1.035
-1.06
-1.035
-1.035
-1.03
-1.035
-1.05
-1.05
-1.06
-1.055
-1.06
-1.04
-1.02
-1.01
-0.985
-0.98
-0.96
-0.935
-0.925
-0.92
-0.92
-0.91
-0.89
-0.865
-0.835
-0.8
-0.76
-0.71
-0.685
-0.67
-0.665
-0.675
-0.695
-0.705
-0.7
-0.715
-0.72
-0.72
-0.75
-0.785
-0.84
-0.91
-0.975
-1.02
-1.075
-1.09
-1.08
-1.09
-1.065
-1.045
-1.025
-1.035
-1.05
-1.05
-1.06
-1.07
-1.11
-1.08
-1.085
-1.08
-1.08
-1.065
-1.065
-1.075
-1.085
-1.085
-1.115
-1.125
-1.16
-1.16
-1.14
-1.04
-0.895
-0.675
-0.355
0.01
0.425
0.805
1.075
1.245
1.265
1.155
0.92
0.555
0.05
-0.5
-0.93
-1.165
-1.205
-1.095
-0.955
-0.845
-0.805
-0.84
-0.895
-0.95
-1.01
-1.045
-1.055
-1.065
-1.05
-1.045
-1.07
-1.08
-1.085
-1.095
-1.1
-1.115
-1.105
-1.11
-1.12
-1.11
-1.1
-1.105
-1.105
-1.11
-1.13
-1.125
-1.13
-1.12
-1.125
-1.11
-1.1
-1.105
-1.105
-1.115
-1.125
-1.135
-1.145
-1.145
-1.14
-1.14
-1.13
-1.115
-1.105
-1.11
-1.125
-1.125
-1.14
-1.135
-1.14
-1.135
-1.115
-1.115
-1.1
-1.09
-1.08
-1.08
-1.085
-1.075
-1.075
-1.085
-1.085
-1.07
-1.065
-1.045
-1.045
-1.02
-0.995
-0.98
-0.985
-0.985
-0.97
-0.95
-0.955
-0.945
-0.92
-0.905
-0.895
-0.85
-0.82
-0.815
-0.8
-0.78
-0.765
-0.765
-0.735
-0.725
-0.715
-0.69
-0.66
-0.63
-0.61
-0.585
-0.575
-0.57
-0.575
-0.565
-0.565
-0.545
-0.535
-0.505
-0.48
-0.485
-0.475
-0.48
-0.485
-0.525
-0.545
-0.57
-0.595
-0.635
-0.615
-0.65
-0.66
-0.685
-0.715
-0.745
-0.765
-0.795
-0.83
-0.86
-0.885
-0.9
-0.92
-0.935
-0.93
-0.94
-0.94
-0.945
-0.96
-0.98
-1.0
-1.005
-1.01
-1.02
-1.025
-1.025
-1.02
-1.005
-1.02
-0.995
-1.0
-0.995
-1.02
-1.02
-1.035
-1.005
-1.035
-1.0
-0.99
-0.98
-0.97
-0.97
-0.975
-0.97
-0.98
-0.995
-0.97
-0.99
-0.99
-0.975
-0.965
-0.95
-0.95
-0.945
-0.955
-0.955
-0.965
-0.965
-0.98
-0.985
-0.985
-0.975
-0.985
-0.98
-0.98
-0.97
-0.97
-0.985
-0.995
-1.0
-1.02
-1.015
-1.02
-1.02
-1.025
-1.015
-1.015
-1.005
-1.015
-1.025
-1.03
-1.04
-1.055
-1.055
-1.055
-1.055
-1.07
-1.06
-1.065
-1.045
-1.045
-1.06
-1.075
-1.07
-1.085
-1.09
-1.08
-1.085
-1.08
-1.075
-1.085
-1.08
-1.095
-1.075
-1.09
-1.085
-1.095
-1.1
-1.105
-1.1
-1.09
-1.07
-1.07
-1.075
-1.075
-1.09
-1.09
-1.095
-1.1
-1.09
-1.105
-1.095
-1.085
-1.085
-1.065
-1.065
-1.08
-1.07
-1.075
-1.09
-1.115
-1.085
-1.075
-1.07
-1.085
-1.035
-1.0
-0.985
-0.97
-0.96
-0.95
-0.955
-0.945
-0.93
-0.905
-0.875
-0.82
-0.765
-0.73
-0.705
-0.705
-0.73
-0.76
-0.775
-0.775
-0.78
-0.795
-0.81
-0.82
-0.855
-0.905
-0.965
-1.05
-1.09
-1.14
-1.145
-1.17
-1.15
-1.135
-1.13
-1.13
-1.15
-1.125
-1.13
-1.13
-1.135
-1.14
-1.15
-1.17
-1.165
-1.15
-1.155
-1.135
-1.14
-1.115
-1.115
-1.115
-1.125
-1.13
-1.145
-1.145
-1.15
-1.14
-1.145
-1.15
-1.15
-1.16
-1.16
-1.16
-1.105
-0.99
-0.835
-0.58
-0.245
0.13
0.52
0.865
1.095
1.21
1.22
1.115
0.865
0.465
-0.065
-0.605
-1.04
-1.25
-1.265
-1.155
-1.02
-0.9
-0.875
-0.89
-0.96
-1.04
-1.115
-1.14
-1.145
-1.145
-1.14
-1.125
-1.12
-1.115
-1.115
-1.125
-1.12
-1.135
-1.16
-1.16
-1.165
-1.155
-1.155
-1.145
-1.14
-1.14
-1.13
-1.14
-1.145
-1.155
-1.16
-1.165
-1.16
-1.18
-1.155
-1.145
-1.135
-1.12
-1.12
-1.12
-1.12
-1.13
-1.14
-1.135
-1.14
-1.135
-1.125
-1.105
-1.115
-1.1
-1.095
-1.1
-1.085
-1.09
-1.095
-1.095
-1.09
-1.075
-1.07
-1.05
-1.03
-1.0
-1.005
-1.005
-0.97
-0.985
-0.98
-0.975
-0.965
-0.975
-0.955
-0.91
-0.87
-0.845
-0.84
-0.825
-0.81
-0.8
-0.79
-0.78
-0.76
-0.735
-0.72
-0.7
-0.66
-0.64
-0.6
-0.58
-0.585
-0.56
-0.56
-0.55
-0.535
-0.53
-0.505
-0.485
-0.475
-0.485
-0.475
-0.465
-0.475
-0.515
-0.525
-0.55
-0.58
-0.6
-0.61
-0.64
-0.675
-0.695
-0.72
-0.735
-0.795
-0.825
-0.85
-0.88
-0.92
-0.935
-0.945
-0.965
-0.96
-0.975
-0.99
-1.0
-1.015
-1.045
-1.04
-1.065
-1.075
-1.09
-1.08
-1.08
-1.07
-1.07
-1.08
-1.085
-1.08
-1.085
-1.105
-1.1
-1.115
-1.105
-1.09
-1.085
-1.08
-1.05
-1.05
-1.045
-1.06
-1.055
-1.04
-1.05
-1.045
-1.04
-1.025
-1.01
-1.005
-1.0
-1.0
-0.995
-1.0
-0.97
-0.945
-0.875
-0.76
-0.61
-0.435
-0.235
-0.025
0.185
0.42
0.65
0.89
1.145
1.395
1.595
1.78
1.915
2.01
2.055
2.075
2.06
2.03
1.955
1.855
1.755
1.695
1.675
1.68
1.675
1.66
1.6
1.475
1.3
1.095
0.84
0.54
0.14
-0.31
-0.695
-1.005
-1.185
-1.235
-1.24
-1.22
-1.185
-1.21
-1.235
-1.295
-1.365
-1.415
-1.45
-1.505
-1.53
-1.505
-1.505
-1.52
-1.525
-1.53
-1.55
-1.565
-1.58
-1.6
-1.61
-1.625
-1.64
-1.65
-1.65
-1.67
-1.68
-1.695
-1.72
-1.725
-1.76
-1.775
-1.79
-1.815
-1.835
-1.845
-1.845
-1.86
-1.85
-1.855
-1.87
-1.88
-1.9
-1.9
-1.92
-1.925
-1.935
-1.95
-1.96
-1.95
-1.945
-1.945
-1.95
-1.955
-1.97
-1.975
-1.995
-2.02
-2.05
-2.085
-2.105
-2.125
-2.135
-2.175
-2.215
-2.265
-2.32
-2.385
-2.44
-2.495
-2.525
-2.525
-2.525
-2.515
-2.5
-2.455
-2.45
-2.415
-2.395
-2.365
-2.325
-2.28
-2.225
-2.17
-2.11
-2.045
-1.975
-1.9
-1.84
-1.795
-1.74
-1.685
-1.645
-1.595
-1.535
-1.49
-1.455
-1.42
-1.405
-1.36
-1.355
-1.35
-1.34
-1.34
-1.345
-1.36
-1.355
-1.335
-1.345
-1.32
-1.32
-1.305
-1.305
-1.31
-1.32
-1.315
-1.32
-1.325
-1.325
-1.315
-1.305
-1.285
-1.28
-1.275
-1.28
-1.265
-1.29
-1.285
-1.29
-1.295
-1.295
-1.305
-1.285
-1.265
-1.265
-1.26
-1.255
-1.27
-1.275
-1.265
-1.28
-1.27
-1.27
-1.27
-1.25
-1.24
-1.235
-1.225
-1.23
-1.225
-1.23
-1.235
-1.245
-1.245
-1.245
-1.25
-1.235
-1.22
-1.225
-1.215
-1.225
-1.24
-1.235
-1.235
-1.23
-1.255
-1.255
-1.24
-1.235
-1.22
-1.23
-1.225
-1.215
-1.235
-1.22
-1.225
-1.225
-1.225
-1.235
-1.23
-1.22
-1.215
-1.195
-1.19
-1.205
-1.22
-1.22
-1.235
-1.235
-1.225
-1.23
-1.225
-1.205
-1.19
-1.19
-1.185
-1.18
-1.18
-1.205
-1.205
-1.2
-1.22
-1.21
-1.205
-1.195
-1.19
-1.19
-1.17
-1.175
-1.185
-1.185
-1.185
-1.205
-1.205
-1.2
-1.195
-1.165
-1.16
-1.145
-1.15
-1.145
-1.16
-1.16
-1.18
-1.2
-1.19
-1.195
-1.175
-1.16
-1.16
-1.175
-1.16
-1.155
-1.155
-1.16
-1.17
-1.17
-1.18
-1.175
-1.185
-1.17
-1.17
-1.145
-1.135
-1.14
-1.15
-1.135
-1.15
-1.16
-1.15
-1.16
-1.155
-1.145
-1.135
-1.125
-1.125
-1.125
-1.125
-1.155
-1.155
-1.155
-1.17
-1.155
-1.16
-1.135
-1.15
-1.14
-1.125
-1.13
-1.12
-1.135
-1.145
-1.145
-1.155
-1.17
-1.145
-1.15
-1.125
-1.135
-1.125
-1.135
-1.125
-1.135
-1.135
-1.15
-1.14
-1.15
-1.155
-1.125
-1.12
-1.12
-1.105
-1.125
-1.125
-1.115
-1.135
-1.14
-1.14
-1.14
-1.15
-1.135
-1.125
-1.13
-1.11
-1.115
-1.135
-1.125
-1.135
-1.14
-1.16
-1.165
-1.15
-1.115
-1.095
-1.1
-1.09
-1.09
-1.09
-1.095
-1.12
-1.125
-1.13
-1.115
-1.115
-1.11
-1.085
-1.09
-1.085
-1.105
-1.1
-1.11
-1.125
-1.115
-1.12
-1.11
-1.11
-1.095
-1.1
-1.1
-1.09
-1.095
-1.095
-1.11
-1.12
-1.11
-1.11
-1.12
-1.11
-1.08
-1.085
-1.09
-1.065
-1.075
-1.075
-1.085
-1.095
-1.1
-1.1
-1.105
-1.1
-1.1
-1.085
-1.07
-1.065
-1.07
-1.075
-1.07
-1.085
-1.085
-1.08
-1.095
-1.09
-1.08
-1.085
-1.085
-1.065
-1.085
-1.09
-1.08
-1.065
-1.08
-1.085
-1.09
-1.085
-1.08
-1.06
-1.065
-1.025
-1.02
-1.02
-1.015
-1.015
-1.0
-0.995
-0.98
-0.95
-0.925
-0.905
-0.885
-0.85
-0.82
-0.785
-0.74
-0.72
-0.7
-0.69
-0.7
-0.71
-0.725
-0.725
-0.715
-0.725
-0.75
-0.8
-0.85
-0.935
-1.005
-1.045
-1.09
-1.1
-1.1
-1.085
-1.075
-1.07
-1.07
-1.065
-1.08
-1.11
-1.105
-1.13
-1.115
-1.115
-1.11
-1.09
-1.09
-1.065
-1.065
-1.085
-1.09
-1.12
-1.13
-1.155
-1.185
-1.145
-1.07
-0.915
-0.705
-0.41
-0.055
0.325
0.715
1.01
1.205
1.25
1.17
0.94
0.56
0.04
-0.525
-0.97
-1.205
-1.24
-1.13
-1.0
-0.885
-0.855
-0.89
-0.95
-1.01
-1.05
-1.08
-1.09
-1.11
-1.12
-1.12
-1.13
-1.13
-1.145
-1.16
-1.15
-1.15
-1.14
-1.125
-1.125
-1.125
-1.14
-1.14
-1.15
-1.165
-1.175
-1.165
-1.16
-1.18
-1.15
-1.145
-1.14
-1.15
-1.175
-1.155
-1.17
-1.175
-1.165
-1.175
-1.155
-1.145
-1.145
-1.135
-1.125
-1.13
-1.14
-1.15
-1.15
-1.155
-1.155
-1.145
-1.145
-1.125
-1.11
-1.11
-1.085
-1.095
-1.095
-1.09
-1.095
-1.085
-1.09
-1.065
-1.055
-1.05
-1.02
-1.005
-1.005
-0.995
-0.985
-0.965
-0.975
-0.965
-0.94
-0.925
-0.905
-0.88
-0.87
-0.835
-0.815
-0.805
-0.805
-0.79
-0.79
-0.775
-0.765
-0.745
-0.745
-0.715
-0.7
-0.665
-0.645
-0.625
-0.61
-0.61
-0.6
-0.595
-0.595
-0.58
-0.575
-0.56
-0.54
-0.535
-0.53
-0.535
-0.555
-0.56
-0.58
-0.61
-0.64
-0.65
-0.675
-0.685
-0.715
-0.73
-0.735
-0.775
-0.805
-0.83
-0.825
-0.855
-0.87
-0.89
-0.89
-0.9
-0.9
-0.905
-0.915
-0.935
-0.955
-0.955
-0.97
-0.975
-0.99
-0.995
-0.98
-0.975
-0.965
-0.94
-0.95
-0.945
-0.96
-0.955
-0.97
-0.975
-0.975
-0.97
-0.965
-0.96
-0.95
-0.965
-0.945
-0.935
-0.925
-0.915
-0.93
-0.935
-0.935
-0.94
-0.93
-0.92
-0.905
-0.915
-0.905
-0.9
-0.935
-0.915
-0.92
-0.925
-0.92
-0.945
-0.935
-0.91
-0.91
-0.915
-0.905
-0.905
-0.91
-0.92
-0.935
-0.945
-0.95
-0.97
-0.965
-0.96
-0.94
-0.945
-0.935
-0.935
-0.94
-0.945
-0.955
-0.975
-0.975
-0.98
-0.985
-0.98
-0.96
-0.945
-0.935
-0.955
-0.965
-0.97
-0.985
-1.01
-0.99
-1.02
-1.015
-1.0
-0.995
-0.99
-0.98
-0.995
-1.01
-1.015
-1.015
-1.025
-1.025
-1.025
-1.015
-1.02
-0.995
-0.99
-0.97
-0.98
-1.0
-0.99
-1.005
-1.0
-1.005
-1.005
-1.0
-0.98
-0.99
-0.975
-0.965
-0.965
-0.97
-0.96
-0.98
-0.99
-0.995
-0.995
-0.99
-0.985
-0.98
-0.965
-0.965
-0.96
-0.96
-0.97
-0.975
-0.975
-0.975
-0.97
-0.945
-0.92
-0.885
-0.855
-0.82
-0.82
-0.81
-0.8
-0.795
-0.78
-0.755
-0.735
-0.695
-0.645
-0.605
-0.59
-0.595
-0.62
-0.645
-0.645
-0.635
-0.65
-0.655
-0.69
-0.705
-0.75
-0.795
-0.845
-0.885
-0.935
-0.96
-0.985
-0.98
-0.985
-1.005
-1.005
-1.005
-0.99
-0.99
-0.975
-0.97
-0.985
-1.0
-1.015
-1.025
-1.01
-1.01
-1.005
-1.0
-1.0
-0.99
-0.975
-0.96
-0.965
-0.955
-0.96
-0.98
-0.985
-0.99
-1.02
-1.05
-1.045
-0.98
-0.885
-0.705
-0.455
-0.15
0.21
0.57
0.925
1.175
1.31
1.335
1.25
1.07
0.73
0.285
-0.24
